"# Channel 1"
"# Trace 1"
Frequency, Formatted Data, Formatted Data
+5.00000000000E+000, +2.91425259926E-001, +0.00000000000E+000
+6.25499687500E+003, +1.42808027583E+000, +0.00000000000E+000
+1.25049937500E+004, +2.83363721644E+000, +0.00000000000E+000
+1.87549906250E+004, +4.25339014702E+000, +0.00000000000E+000
+2.50049875000E+004, +5.66452345413E+000, +0.00000000000E+000
+3.12549843750E+004, +7.07784958054E+000, +0.00000000000E+000
+3.75049812500E+004, +8.48784816476E+000, +0.00000000000E+000
+4.37549781250E+004, +9.91372237510E+000, +0.00000000000E+000
+5.00049750000E+004, +1.13191004628E+001, +0.00000000000E+000
+5.62549718750E+004, +1.27233313927E+001, +0.00000000000E+000
+6.25049687500E+004, +1.41450302126E+001, +0.00000000000E+000
+6.87549656250E+004, +1.55557403991E+001, +0.00000000000E+000
+7.50049625000E+004, +1.69774355679E+001, +0.00000000000E+000
+8.12549593750E+004, +1.83890070478E+001, +0.00000000000E+000
+8.75049562500E+004, +1.98040644824E+001, +0.00000000000E+000
+9.37549531250E+004, +2.12605743444E+001, +0.00000000000E+000
+1.00004950000E+005, +2.26986178114E+001, +0.00000000000E+000
+1.06254946875E+005, +2.41106157076E+001, +0.00000000000E+000
+1.12504943750E+005, +2.55232212480E+001, +0.00000000000E+000
+1.18754940625E+005, +2.69564226245E+001, +0.00000000000E+000
+1.25004937500E+005, +2.83892562015E+001, +0.00000000000E+000
+1.31254934375E+005, +2.97989979822E+001, +0.00000000000E+000
+1.37504931250E+005, +3.12370997367E+001, +0.00000000000E+000
+1.43754928125E+005, +3.26527155201E+001, +0.00000000000E+000
+1.50004925000E+005, +3.40883059147E+001, +0.00000000000E+000
+1.56254921875E+005, +3.55249112112E+001, +0.00000000000E+000
+1.62504918750E+005, +3.69569962624E+001, +0.00000000000E+000
+1.68754915625E+005, +3.84129766033E+001, +0.00000000000E+000
+1.75004912500E+005, +3.98461579469E+001, +0.00000000000E+000
+1.81254909375E+005, +4.12266930010E+001, +0.00000000000E+000
+1.87504906250E+005, +4.27151761310E+001, +0.00000000000E+000
+1.93754903125E+005, +4.41365219779E+001, +0.00000000000E+000
+2.00004900000E+005, +4.56202334371E+001, +0.00000000000E+000
+2.06254896875E+005, +4.70512753728E+001, +0.00000000000E+000
+2.12504893750E+005, +4.84951821672E+001, +0.00000000000E+000
+2.18754890625E+005, +4.99165848269E+001, +0.00000000000E+000
+2.25004887500E+005, +5.13723427505E+001, +0.00000000000E+000
+2.31254884375E+005, +5.27989836719E+001, +0.00000000000E+000
+2.37504881250E+005, +5.42434278672E+001, +0.00000000000E+000
+2.43754878125E+005, +5.57234792636E+001, +0.00000000000E+000
+2.50004875000E+005, +5.71714159964E+001, +0.00000000000E+000
+2.56254871875E+005, +5.85304368409E+001, +0.00000000000E+000
+2.62504868750E+005, +6.00586478916E+001, +0.00000000000E+000
+2.68754865625E+005, +6.15443076167E+001, +0.00000000000E+000
+2.75004862500E+005, +6.29417557959E+001, +0.00000000000E+000
+2.81254859375E+005, +6.43815500913E+001, +0.00000000000E+000
+2.87504856250E+005, +6.58820666357E+001, +0.00000000000E+000
+2.93754853125E+005, +6.73429639806E+001, +0.00000000000E+000
+3.00004850000E+005, +6.88573403949E+001, +0.00000000000E+000
+3.06254846875E+005, +7.02647001417E+001, +0.00000000000E+000
+3.12504843750E+005, +7.17589616948E+001, +0.00000000000E+000
+3.18754840625E+005, +7.32408045303E+001, +0.00000000000E+000
+3.25004837500E+005, +7.46994353965E+001, +0.00000000000E+000
+3.31254834375E+005, +7.61458824773E+001, +0.00000000000E+000
+3.37504831250E+005, +7.76034599231E+001, +0.00000000000E+000
+3.43754828125E+005, +7.91655721459E+001, +0.00000000000E+000
+3.50004825000E+005, +8.06454799819E+001, +0.00000000000E+000
+3.56254821875E+005, +8.20562038258E+001, +0.00000000000E+000
+3.62504818750E+005, +8.35317503137E+001, +0.00000000000E+000
+3.68754815625E+005, +8.50771307397E+001, +0.00000000000E+000
+3.75004812500E+005, +8.66054394063E+001, +0.00000000000E+000
+3.81254809375E+005, +8.80000531764E+001, +0.00000000000E+000
+3.87504806250E+005, +8.94717629334E+001, +0.00000000000E+000
+3.93754803125E+005, +9.09548749687E+001, +0.00000000000E+000
+4.00004800000E+005, +9.24590166207E+001, +0.00000000000E+000
+4.06254796875E+005, +9.40565957076E+001, +0.00000000000E+000
+4.12504793750E+005, +9.54750310977E+001, +0.00000000000E+000
+4.18754790625E+005, +9.70018847813E+001, +0.00000000000E+000
+4.25004787500E+005, +9.85135029214E+001, +0.00000000000E+000
+4.31254784375E+005, +1.00097216735E+002, +0.00000000000E+000
+4.37504781250E+005, +1.01564067154E+002, +0.00000000000E+000
+4.43754778125E+005, +1.03051736690E+002, +0.00000000000E+000
+4.50004775000E+005, +1.04569925698E+002, +0.00000000000E+000
+4.56254771875E+005, +1.06059916174E+002, +0.00000000000E+000
+4.62504768750E+005, +1.07542691027E+002, +0.00000000000E+000
+4.68754765625E+005, +1.09110184507E+002, +0.00000000000E+000
+4.75004762500E+005, +1.10712774379E+002, +0.00000000000E+000
+4.81254759375E+005, +1.12070640791E+002, +0.00000000000E+000
+4.87504756250E+005, +1.13731286354E+002, +0.00000000000E+000
+4.93754753125E+005, +1.15059463254E+002, +0.00000000000E+000
+5.00004750000E+005, +1.16736115824E+002, +0.00000000000E+000
+5.06254746875E+005, +1.18402523863E+002, +0.00000000000E+000
+5.12504743750E+005, +1.19930657638E+002, +0.00000000000E+000
+5.18754740625E+005, +1.21456785680E+002, +0.00000000000E+000
+5.25004737500E+005, +1.22895269347E+002, +0.00000000000E+000
+5.31254734375E+005, +1.24578322033E+002, +0.00000000000E+000
+5.37504731250E+005, +1.26133102400E+002, +0.00000000000E+000
+5.43754728125E+005, +1.27634861342E+002, +0.00000000000E+000
+5.50004725000E+005, +1.29147484864E+002, +0.00000000000E+000
+5.56254721875E+005, +1.30717873290E+002, +0.00000000000E+000
+5.62504718750E+005, +1.32103770871E+002, +0.00000000000E+000
+5.68754715625E+005, +1.33757152338E+002, +0.00000000000E+000
+5.75004712500E+005, +1.35465340666E+002, +0.00000000000E+000
+5.81254709375E+005, +1.37070193121E+002, +0.00000000000E+000
+5.87504706250E+005, +1.38490429141E+002, +0.00000000000E+000
+5.93754703125E+005, +1.40191444396E+002, +0.00000000000E+000
+6.00004700000E+005, +1.41764007684E+002, +0.00000000000E+000
+6.06254696875E+005, +1.43321313116E+002, +0.00000000000E+000
+6.12504693750E+005, +1.44900433710E+002, +0.00000000000E+000
+6.18754690625E+005, +1.46588434327E+002, +0.00000000000E+000
+6.25004687500E+005, +1.48222722891E+002, +0.00000000000E+000
+6.31254684375E+005, +1.49720913115E+002, +0.00000000000E+000
+6.37504681250E+005, +1.51327372091E+002, +0.00000000000E+000
+6.43754678125E+005, +1.53025866309E+002, +0.00000000000E+000
+6.50004675000E+005, +1.54690174049E+002, +0.00000000000E+000
+6.56254671875E+005, +1.56292547186E+002, +0.00000000000E+000
+6.62504668750E+005, +1.57950071401E+002, +0.00000000000E+000
+6.68754665625E+005, +1.59442918893E+002, +0.00000000000E+000
+6.75004662500E+005, +1.61081708324E+002, +0.00000000000E+000
+6.81254659375E+005, +1.62743893223E+002, +0.00000000000E+000
+6.87504656250E+005, +1.64234111211E+002, +0.00000000000E+000
+6.93754653125E+005, +1.66024685329E+002, +0.00000000000E+000
+7.00004650000E+005, +1.67638258039E+002, +0.00000000000E+000
+7.06254646875E+005, +1.69283216817E+002, +0.00000000000E+000
+7.12504643750E+005, +1.71062165301E+002, +0.00000000000E+000
+7.18754640625E+005, +1.72367988815E+002, +0.00000000000E+000
+7.25004637500E+005, +1.74323683965E+002, +0.00000000000E+000
+7.31254634375E+005, +1.76075176977E+002, +0.00000000000E+000
+7.37504631250E+005, +1.77292796805E+002, +0.00000000000E+000
+7.43754628125E+005, +1.78779212757E+002, +0.00000000000E+000
+7.50004625000E+005, +1.80580288790E+002, +0.00000000000E+000
+7.56254621875E+005, +1.82506831103E+002, +0.00000000000E+000
+7.62504618750E+005, +1.84272131097E+002, +0.00000000000E+000
+7.68754615625E+005, +1.85846541224E+002, +0.00000000000E+000
+7.75004612500E+005, +1.87519345414E+002, +0.00000000000E+000
+7.81254609375E+005, +1.89418807587E+002, +0.00000000000E+000
+7.87504606250E+005, +1.91160516967E+002, +0.00000000000E+000
+7.93754603125E+005, +1.93125507153E+002, +0.00000000000E+000
+8.00004600000E+005, +1.94581385799E+002, +0.00000000000E+000
+8.06254596875E+005, +1.96471260131E+002, +0.00000000000E+000
+8.12504593750E+005, +1.97816228264E+002, +0.00000000000E+000
+8.18754590625E+005, +1.99688475786E+002, +0.00000000000E+000
+8.25004587500E+005, +2.01705439745E+002, +0.00000000000E+000
+8.31254584375E+005, +2.03445194017E+002, +0.00000000000E+000
+8.37504581250E+005, +2.05091297632E+002, +0.00000000000E+000
+8.43754578125E+005, +2.07044148111E+002, +0.00000000000E+000
+8.50004575000E+005, +2.08568828024E+002, +0.00000000000E+000
+8.56254571875E+005, +2.10254353149E+002, +0.00000000000E+000
+8.62504568750E+005, +2.12024842692E+002, +0.00000000000E+000
+8.68754565625E+005, +2.13679769772E+002, +0.00000000000E+000
+8.75004562500E+005, +2.15811572230E+002, +0.00000000000E+000
+8.81254559375E+005, +2.17762637305E+002, +0.00000000000E+000
+8.87504556250E+005, +2.19549453317E+002, +0.00000000000E+000
+8.93754553125E+005, +2.21427703376E+002, +0.00000000000E+000
+9.00004550000E+005, +2.22913126448E+002, +0.00000000000E+000
+9.06254546875E+005, +2.24862136715E+002, +0.00000000000E+000
+9.12504543750E+005, +2.26559211602E+002, +0.00000000000E+000
+9.18754540625E+005, +2.28700011258E+002, +0.00000000000E+000
+9.25004537500E+005, +2.30490848026E+002, +0.00000000000E+000
+9.31254534375E+005, +2.32277081749E+002, +0.00000000000E+000
+9.37504531250E+005, +2.34252595436E+002, +0.00000000000E+000
+9.43754528125E+005, +2.36237025939E+002, +0.00000000000E+000
+9.50004525000E+005, +2.37859091038E+002, +0.00000000000E+000
+9.56254521875E+005, +2.40126033868E+002, +0.00000000000E+000
+9.62504518750E+005, +2.41418002138E+002, +0.00000000000E+000
+9.68754515625E+005, +2.43560465128E+002, +0.00000000000E+000
+9.75004512500E+005, +2.46005621046E+002, +0.00000000000E+000
+9.81254509375E+005, +2.47705730952E+002, +0.00000000000E+000
+9.87504506250E+005, +2.49315237160E+002, +0.00000000000E+000
+9.93754503125E+005, +2.51194073125E+002, +0.00000000000E+000
+1.00000450000E+006, +2.53514411618E+002, +0.00000000000E+000
+1.00625449688E+006, +2.54780236605E+002, +0.00000000000E+000
+1.01250449375E+006, +2.56987019635E+002, +0.00000000000E+000
+1.01875449063E+006, +2.59311026122E+002, +0.00000000000E+000
+1.02500448750E+006, +2.61055158403E+002, +0.00000000000E+000
+1.03125448438E+006, +2.63310206061E+002, +0.00000000000E+000
+1.03750448125E+006, +2.65359352570E+002, +0.00000000000E+000
+1.04375447813E+006, +2.66950967446E+002, +0.00000000000E+000
+1.05000447500E+006, +2.69284993626E+002, +0.00000000000E+000
+1.05625447188E+006, +2.70997962014E+002, +0.00000000000E+000
+1.06250446875E+006, +2.73082818091E+002, +0.00000000000E+000
+1.06875446563E+006, +2.75412695902E+002, +0.00000000000E+000
+1.07500446250E+006, +2.77179177808E+002, +0.00000000000E+000
+1.08125445938E+006, +2.79660984526E+002, +0.00000000000E+000
+1.08750445625E+006, +2.81691804398E+002, +0.00000000000E+000
+1.09375445313E+006, +2.83783427546E+002, +0.00000000000E+000
+1.10000445000E+006, +2.85864646751E+002, +0.00000000000E+000
+1.10625444687E+006, +2.87938132786E+002, +0.00000000000E+000
+1.11250444375E+006, +2.90167717056E+002, +0.00000000000E+000
+1.11875444063E+006, +2.92263463914E+002, +0.00000000000E+000
+1.12500443750E+006, +2.94097549028E+002, +0.00000000000E+000
+1.13125443438E+006, +2.96892503494E+002, +0.00000000000E+000
+1.13750443125E+006, +2.98283501201E+002, +0.00000000000E+000
+1.14375442813E+006, +3.00207388526E+002, +0.00000000000E+000
+1.15000442500E+006, +3.02300729530E+002, +0.00000000000E+000
+1.15625442188E+006, +3.04216296496E+002, +0.00000000000E+000
+1.16250441875E+006, +3.06522542002E+002, +0.00000000000E+000
+1.16875441562E+006, +3.08905988387E+002, +0.00000000000E+000
+1.17500441250E+006, +3.11807300372E+002, +0.00000000000E+000
+1.18125440938E+006, +3.13019566336E+002, +0.00000000000E+000
+1.18750440625E+006, +3.15310626351E+002, +0.00000000000E+000
+1.19375440313E+006, +3.18192451869E+002, +0.00000000000E+000
+1.20000440000E+006, +3.20306810923E+002, +0.00000000000E+000
+1.20625439688E+006, +3.22943214902E+002, +0.00000000000E+000
+1.21250439375E+006, +3.24566911839E+002, +0.00000000000E+000
+1.21875439063E+006, +3.27466825761E+002, +0.00000000000E+000
+1.22500438750E+006, +3.29413725244E+002, +0.00000000000E+000
+1.23125438437E+006, +3.31528912403E+002, +0.00000000000E+000
+1.23750438125E+006, +3.34007171588E+002, +0.00000000000E+000
+1.24375437813E+006, +3.36645754094E+002, +0.00000000000E+000
+1.25000437500E+006, +3.39062796512E+002, +0.00000000000E+000
+1.25625437188E+006, +3.40853707297E+002, +0.00000000000E+000
+1.26250436875E+006, +3.43136274620E+002, +0.00000000000E+000
+1.26875436563E+006, +3.45921940450E+002, +0.00000000000E+000
+1.27500436250E+006, +3.48446926518E+002, +0.00000000000E+000
+1.28125435938E+006, +3.50359797212E+002, +0.00000000000E+000
+1.28750435625E+006, +3.53156702651E+002, +0.00000000000E+000
+1.29375435312E+006, +3.55863409348E+002, +0.00000000000E+000
+1.30000435000E+006, +3.57252605507E+002, +0.00000000000E+000
+1.30625434688E+006, +3.60740618813E+002, +0.00000000000E+000
+1.31250434375E+006, +3.61661291453E+002, +0.00000000000E+000
+1.31875434063E+006, +3.64557055605E+002, +0.00000000000E+000
+1.32500433750E+006, +3.67581108839E+002, +0.00000000000E+000
+1.33125433438E+006, +3.70228131627E+002, +0.00000000000E+000
+1.33750433125E+006, +3.72558487484E+002, +0.00000000000E+000
+1.34375432813E+006, +3.75786495195E+002, +0.00000000000E+000
+1.35000432500E+006, +3.77838416761E+002, +0.00000000000E+000
+1.35625432187E+006, +3.80488900856E+002, +0.00000000000E+000
+1.36250431875E+006, +3.82256092631E+002, +0.00000000000E+000
+1.36875431563E+006, +3.86006236083E+002, +0.00000000000E+000
+1.37500431250E+006, +3.88671128527E+002, +0.00000000000E+000
+1.38125430938E+006, +3.90588296137E+002, +0.00000000000E+000
+1.38750430625E+006, +3.93744446493E+002, +0.00000000000E+000
+1.39375430313E+006, +3.96771064146E+002, +0.00000000000E+000
+1.40000430000E+006, +3.99607310951E+002, +0.00000000000E+000
+1.40625429688E+006, +4.01509696025E+002, +0.00000000000E+000
+1.41250429375E+006, +4.04227036468E+002, +0.00000000000E+000
+1.41875429062E+006, +4.07036567983E+002, +0.00000000000E+000
+1.42500428750E+006, +4.10857403099E+002, +0.00000000000E+000
+1.43125428438E+006, +4.11739902037E+002, +0.00000000000E+000
+1.43750428125E+006, +4.14342080232E+002, +0.00000000000E+000
+1.44375427813E+006, +4.19298139772E+002, +0.00000000000E+000
+1.45000427500E+006, +4.22220324532E+002, +0.00000000000E+000
+1.45625427188E+006, +4.24109071584E+002, +0.00000000000E+000
+1.46250426875E+006, +4.27307140946E+002, +0.00000000000E+000
+1.46875426563E+006, +4.28882696276E+002, +0.00000000000E+000
+1.47500426250E+006, +4.31843920617E+002, +0.00000000000E+000
+1.48125425937E+006, +4.35325157731E+002, +0.00000000000E+000
+1.48750425625E+006, +4.38475623353E+002, +0.00000000000E+000
+1.49375425313E+006, +4.39925286957E+002, +0.00000000000E+000
+1.50000425000E+006, +4.43583911737E+002, +0.00000000000E+000
+1.50625424688E+006, +4.48864193167E+002, +0.00000000000E+000
+1.51250424375E+006, +4.51260671733E+002, +0.00000000000E+000
+1.51875424063E+006, +4.52357131941E+002, +0.00000000000E+000
+1.52500423750E+006, +4.55009659304E+002, +0.00000000000E+000
+1.53125423438E+006, +4.58611638378E+002, +0.00000000000E+000
+1.53750423125E+006, +4.61490731943E+002, +0.00000000000E+000
+1.54375422812E+006, +4.66520175464E+002, +0.00000000000E+000
+1.55000422500E+006, +4.70563844637E+002, +0.00000000000E+000
+1.55625422188E+006, +4.72522871489E+002, +0.00000000000E+000
+1.56250421875E+006, +4.74437503888E+002, +0.00000000000E+000
+1.56875421563E+006, +4.79880000350E+002, +0.00000000000E+000
+1.57500421250E+006, +4.82152574047E+002, +0.00000000000E+000
+1.58125420938E+006, +4.85091594367E+002, +0.00000000000E+000
+1.58750420625E+006, +4.87439969115E+002, +0.00000000000E+000
+1.59375420313E+006, +4.91464744017E+002, +0.00000000000E+000
+1.60000420000E+006, +4.95121746470E+002, +0.00000000000E+000
+1.60625419687E+006, +4.98374271529E+002, +0.00000000000E+000
+1.61250419375E+006, +5.01143019834E+002, +0.00000000000E+000
+1.61875419063E+006, +5.06561586333E+002, +0.00000000000E+000
+1.62500418750E+006, +5.08583262682E+002, +0.00000000000E+000
+1.63125418438E+006, +5.12831140887E+002, +0.00000000000E+000
+1.63750418125E+006, +5.15441480817E+002, +0.00000000000E+000
+1.64375417813E+006, +5.19649758632E+002, +0.00000000000E+000
+1.65000417500E+006, +5.23959875746E+002, +0.00000000000E+000
+1.65625417188E+006, +5.25504240555E+002, +0.00000000000E+000
+1.66250416875E+006, +5.30315626446E+002, +0.00000000000E+000
+1.66875416562E+006, +5.32304826480E+002, +0.00000000000E+000
+1.67500416250E+006, +5.37197289923E+002, +0.00000000000E+000
+1.68125415938E+006, +5.40141589266E+002, +0.00000000000E+000
+1.68750415625E+006, +5.45084025451E+002, +0.00000000000E+000
+1.69375415313E+006, +5.48110510127E+002, +0.00000000000E+000
+1.70000415000E+006, +5.51242860308E+002, +0.00000000000E+000
+1.70625414688E+006, +5.56097291095E+002, +0.00000000000E+000
+1.71250414375E+006, +5.61307060068E+002, +0.00000000000E+000
+1.71875414063E+006, +5.64018329376E+002, +0.00000000000E+000
+1.72500413750E+006, +5.66056665617E+002, +0.00000000000E+000
+1.73125413437E+006, +5.73286325985E+002, +0.00000000000E+000
+1.73750413125E+006, +5.73390894512E+002, +0.00000000000E+000
+1.74375412813E+006, +5.78799203455E+002, +0.00000000000E+000
+1.75000412500E+006, +5.80347130223E+002, +0.00000000000E+000
+1.75625412188E+006, +5.88742722718E+002, +0.00000000000E+000
+1.76250411875E+006, +5.90687026514E+002, +0.00000000000E+000
+1.76875411563E+006, +5.95397683075E+002, +0.00000000000E+000
+1.77500411250E+006, +6.01838830863E+002, +0.00000000000E+000
+1.78125410938E+006, +6.06099384260E+002, +0.00000000000E+000
+1.78750410625E+006, +6.10393834903E+002, +0.00000000000E+000
+1.79375410312E+006, +6.13869190174E+002, +0.00000000000E+000
+1.80000410000E+006, +6.17813263044E+002, +0.00000000000E+000
+1.80625409688E+006, +6.22061935281E+002, +0.00000000000E+000
+1.81250409375E+006, +6.26250312336E+002, +0.00000000000E+000
+1.81875409063E+006, +6.31531568541E+002, +0.00000000000E+000
+1.82500408750E+006, +6.37855415069E+002, +0.00000000000E+000
+1.83125408438E+006, +6.39841594710E+002, +0.00000000000E+000
+1.83750408125E+006, +6.43818373292E+002, +0.00000000000E+000
+1.84375407813E+006, +6.46120178602E+002, +0.00000000000E+000
+1.85000407500E+006, +6.54554576798E+002, +0.00000000000E+000
+1.85625407187E+006, +6.58842218876E+002, +0.00000000000E+000
+1.86250406875E+006, +6.62531059413E+002, +0.00000000000E+000
+1.86875406563E+006, +6.69331078940E+002, +0.00000000000E+000
+1.87500406250E+006, +6.71351156784E+002, +0.00000000000E+000
+1.88125405938E+006, +6.79664969303E+002, +0.00000000000E+000
+1.88750405625E+006, +6.82397002734E+002, +0.00000000000E+000
+1.89375405313E+006, +6.86966695110E+002, +0.00000000000E+000
+1.90000405000E+006, +6.92780536222E+002, +0.00000000000E+000
+1.90625404688E+006, +6.99619326303E+002, +0.00000000000E+000
+1.91250404375E+006, +7.02575346184E+002, +0.00000000000E+000
+1.91875404062E+006, +7.08757426575E+002, +0.00000000000E+000
+1.92500403750E+006, +7.15578803252E+002, +0.00000000000E+000
+1.93125403438E+006, +7.13834872718E+002, +0.00000000000E+000
+1.93750403125E+006, +7.25357740094E+002, +0.00000000000E+000
+1.94375402813E+006, +7.30256033939E+002, +0.00000000000E+000
+1.95000402500E+006, +7.35740964803E+002, +0.00000000000E+000
+1.95625402188E+006, +7.41922013561E+002, +0.00000000000E+000
+1.96250401875E+006, +7.48304099843E+002, +0.00000000000E+000
+1.96875401563E+006, +7.55296080640E+002, +0.00000000000E+000
+1.97500401250E+006, +7.60489246698E+002, +0.00000000000E+000
+1.98125400937E+006, +7.64426410365E+002, +0.00000000000E+000
+1.98750400625E+006, +7.73934864459E+002, +0.00000000000E+000
+1.99375400313E+006, +7.74809297634E+002, +0.00000000000E+000
+2.00000400000E+006, +7.86347554588E+002, +0.00000000000E+000
