"# Channel 1"
"# Trace 1"
Frequency, Formatted Data, Formatted Data
+5.00000000000E+000, +3.58125449953E-001, +0.00000000000E+000
+6.25499687500E+003, +1.57119674074E+000, +0.00000000000E+000
+1.25049937500E+004, +2.98901280269E+000, +0.00000000000E+000
+1.87549906250E+004, +4.40567757836E+000, +0.00000000000E+000
+2.50049875000E+004, +5.81751613350E+000, +0.00000000000E+000
+3.12549843750E+004, +7.22502050501E+000, +0.00000000000E+000
+3.75049812500E+004, +8.64093397823E+000, +0.00000000000E+000
+4.37549781250E+004, +1.00595837732E+001, +0.00000000000E+000
+5.00049750000E+004, +1.14884119684E+001, +0.00000000000E+000
+5.62549718750E+004, +1.29206665690E+001, +0.00000000000E+000
+6.25049687500E+004, +1.43437398067E+001, +0.00000000000E+000
+6.87549656250E+004, +1.57453533052E+001, +0.00000000000E+000
+7.50049625000E+004, +1.71693165472E+001, +0.00000000000E+000
+8.12549593750E+004, +1.85872364170E+001, +0.00000000000E+000
+8.75049562500E+004, +2.00182942264E+001, +0.00000000000E+000
+9.37549531250E+004, +2.14368778214E+001, +0.00000000000E+000
+1.00004950000E+005, +2.28744416091E+001, +0.00000000000E+000
+1.06254946875E+005, +2.42870839692E+001, +0.00000000000E+000
+1.12504943750E+005, +2.57269240116E+001, +0.00000000000E+000
+1.18754940625E+005, +2.71490979161E+001, +0.00000000000E+000
+1.25004937500E+005, +2.85507967130E+001, +0.00000000000E+000
+1.31254934375E+005, +3.00152347040E+001, +0.00000000000E+000
+1.37504931250E+005, +3.14268755579E+001, +0.00000000000E+000
+1.43754928125E+005, +3.28791440191E+001, +0.00000000000E+000
+1.50004925000E+005, +3.43041635755E+001, +0.00000000000E+000
+1.56254921875E+005, +3.57289589331E+001, +0.00000000000E+000
+1.62504918750E+005, +3.71707228541E+001, +0.00000000000E+000
+1.68754915625E+005, +3.85962497808E+001, +0.00000000000E+000
+1.75004912500E+005, +4.00541578643E+001, +0.00000000000E+000
+1.81254909375E+005, +4.14491174039E+001, +0.00000000000E+000
+1.87504906250E+005, +4.28999531499E+001, +0.00000000000E+000
+1.93754903125E+005, +4.43457623596E+001, +0.00000000000E+000
+2.00004900000E+005, +4.57746996613E+001, +0.00000000000E+000
+2.06254896875E+005, +4.71926167150E+001, +0.00000000000E+000
+2.12504893750E+005, +4.86111279259E+001, +0.00000000000E+000
+2.18754890625E+005, +5.00917174677E+001, +0.00000000000E+000
+2.25004887500E+005, +5.15132401014E+001, +0.00000000000E+000
+2.31254884375E+005, +5.30183387469E+001, +0.00000000000E+000
+2.37504881250E+005, +5.44137858795E+001, +0.00000000000E+000
+2.43754878125E+005, +5.58373937136E+001, +0.00000000000E+000
+2.50004875000E+005, +5.72836233955E+001, +0.00000000000E+000
+2.56254871875E+005, +5.87192512016E+001, +0.00000000000E+000
+2.62504868750E+005, +6.02000441896E+001, +0.00000000000E+000
+2.68754865625E+005, +6.16598218989E+001, +0.00000000000E+000
+2.75004862500E+005, +6.30533852112E+001, +0.00000000000E+000
+2.81254859375E+005, +6.45651271648E+001, +0.00000000000E+000
+2.87504856250E+005, +6.59346488056E+001, +0.00000000000E+000
+2.93754853125E+005, +6.74700113789E+001, +0.00000000000E+000
+3.00004850000E+005, +6.89117674232E+001, +0.00000000000E+000
+3.06254846875E+005, +7.03565401829E+001, +0.00000000000E+000
+3.12504843750E+005, +7.18320416036E+001, +0.00000000000E+000
+3.18754840625E+005, +7.32506663904E+001, +0.00000000000E+000
+3.25004837500E+005, +7.47388873437E+001, +0.00000000000E+000
+3.31254834375E+005, +7.62706364462E+001, +0.00000000000E+000
+3.37504831250E+005, +7.76561884393E+001, +0.00000000000E+000
+3.43754828125E+005, +7.91420949838E+001, +0.00000000000E+000
+3.50004825000E+005, +8.06628772770E+001, +0.00000000000E+000
+3.56254821875E+005, +8.20894266811E+001, +0.00000000000E+000
+3.62504818750E+005, +8.35465757641E+001, +0.00000000000E+000
+3.68754815625E+005, +8.50538427639E+001, +0.00000000000E+000
+3.75004812500E+005, +8.65247544892E+001, +0.00000000000E+000
+3.81254809375E+005, +8.79243685748E+001, +0.00000000000E+000
+3.87504806250E+005, +8.95122063487E+001, +0.00000000000E+000
+3.93754803125E+005, +9.09615071115E+001, +0.00000000000E+000
+4.00004800000E+005, +9.24231920926E+001, +0.00000000000E+000
+4.06254796875E+005, +9.38732046867E+001, +0.00000000000E+000
+4.12504793750E+005, +9.53766197060E+001, +0.00000000000E+000
+4.18754790625E+005, +9.69037532276E+001, +0.00000000000E+000
+4.25004787500E+005, +9.83962892310E+001, +0.00000000000E+000
+4.31254784375E+005, +9.98625567352E+001, +0.00000000000E+000
+4.37504781250E+005, +1.01462075703E+002, +0.00000000000E+000
+4.43754778125E+005, +1.02922097596E+002, +0.00000000000E+000
+4.50004775000E+005, +1.04425217907E+002, +0.00000000000E+000
+4.56254771875E+005, +1.05949650096E+002, +0.00000000000E+000
+4.62504768750E+005, +1.07422329447E+002, +0.00000000000E+000
+4.68754765625E+005, +1.08951592884E+002, +0.00000000000E+000
+4.75004762500E+005, +1.10461575875E+002, +0.00000000000E+000
+4.81254759375E+005, +1.11968954089E+002, +0.00000000000E+000
+4.87504756250E+005, +1.13447525887E+002, +0.00000000000E+000
+4.93754753125E+005, +1.15064121049E+002, +0.00000000000E+000
+5.00004750000E+005, +1.16445280816E+002, +0.00000000000E+000
+5.06254746875E+005, +1.18044297725E+002, +0.00000000000E+000
+5.12504743750E+005, +1.19525234580E+002, +0.00000000000E+000
+5.18754740625E+005, +1.21147099267E+002, +0.00000000000E+000
+5.25004737500E+005, +1.22594696586E+002, +0.00000000000E+000
+5.31254734375E+005, +1.24119419298E+002, +0.00000000000E+000
+5.37504731250E+005, +1.25772635226E+002, +0.00000000000E+000
+5.43754728125E+005, +1.27271380416E+002, +0.00000000000E+000
+5.50004725000E+005, +1.28803465559E+002, +0.00000000000E+000
+5.56254721875E+005, +1.30451893529E+002, +0.00000000000E+000
+5.62504718750E+005, +1.31878983090E+002, +0.00000000000E+000
+5.68754715625E+005, +1.33350449464E+002, +0.00000000000E+000
+5.75004712500E+005, +1.35025229776E+002, +0.00000000000E+000
+5.81254709375E+005, +1.36593544149E+002, +0.00000000000E+000
+5.87504706250E+005, +1.38144806420E+002, +0.00000000000E+000
+5.93754703125E+005, +1.39760135398E+002, +0.00000000000E+000
+6.00004700000E+005, +1.41339490510E+002, +0.00000000000E+000
+6.06254696875E+005, +1.42730355698E+002, +0.00000000000E+000
+6.12504693750E+005, +1.44389941689E+002, +0.00000000000E+000
+6.18754690625E+005, +1.45979495983E+002, +0.00000000000E+000
+6.25004687500E+005, +1.47598169511E+002, +0.00000000000E+000
+6.31254684375E+005, +1.49275187413E+002, +0.00000000000E+000
+6.37504681250E+005, +1.50832968774E+002, +0.00000000000E+000
+6.43754678125E+005, +1.52281733440E+002, +0.00000000000E+000
+6.50004675000E+005, +1.53956774211E+002, +0.00000000000E+000
+6.56254671875E+005, +1.55637688231E+002, +0.00000000000E+000
+6.62504668750E+005, +1.57084168986E+002, +0.00000000000E+000
+6.68754665625E+005, +1.58833684448E+002, +0.00000000000E+000
+6.75004662500E+005, +1.60370899940E+002, +0.00000000000E+000
+6.81254659375E+005, +1.62018376556E+002, +0.00000000000E+000
+6.87504656250E+005, +1.63570685014E+002, +0.00000000000E+000
+6.93754653125E+005, +1.65351310072E+002, +0.00000000000E+000
+7.00004650000E+005, +1.67010501239E+002, +0.00000000000E+000
+7.06254646875E+005, +1.68645450927E+002, +0.00000000000E+000
+7.12504643750E+005, +1.70115657612E+002, +0.00000000000E+000
+7.18754640625E+005, +1.71848593420E+002, +0.00000000000E+000
+7.25004637500E+005, +1.73602525432E+002, +0.00000000000E+000
+7.31254634375E+005, +1.75229558669E+002, +0.00000000000E+000
+7.37504631250E+005, +1.76799094115E+002, +0.00000000000E+000
+7.43754628125E+005, +1.78388057219E+002, +0.00000000000E+000
+7.50004625000E+005, +1.80160728366E+002, +0.00000000000E+000
+7.56254621875E+005, +1.81787023904E+002, +0.00000000000E+000
+7.62504618750E+005, +1.83453811831E+002, +0.00000000000E+000
+7.68754615625E+005, +1.85163528544E+002, +0.00000000000E+000
+7.75004612500E+005, +1.86695413053E+002, +0.00000000000E+000
+7.81254609375E+005, +1.88406852985E+002, +0.00000000000E+000
+7.87504606250E+005, +1.90148561188E+002, +0.00000000000E+000
+7.93754603125E+005, +1.91723963644E+002, +0.00000000000E+000
+8.00004600000E+005, +1.93542928592E+002, +0.00000000000E+000
+8.06254596875E+005, +1.95100058151E+002, +0.00000000000E+000
+8.12504593750E+005, +1.96890370964E+002, +0.00000000000E+000
+8.18754590625E+005, +1.98829901194E+002, +0.00000000000E+000
+8.25004587500E+005, +2.00428771401E+002, +0.00000000000E+000
+8.31254584375E+005, +2.02208178506E+002, +0.00000000000E+000
+8.37504581250E+005, +2.03863388749E+002, +0.00000000000E+000
+8.43754578125E+005, +2.05642920508E+002, +0.00000000000E+000
+8.50004575000E+005, +2.07446120866E+002, +0.00000000000E+000
+8.56254571875E+005, +2.09136124683E+002, +0.00000000000E+000
+8.62504568750E+005, +2.10918522031E+002, +0.00000000000E+000
+8.68754565625E+005, +2.12718088633E+002, +0.00000000000E+000
+8.75004562500E+005, +2.14307357135E+002, +0.00000000000E+000
+8.81254559375E+005, +2.16173377442E+002, +0.00000000000E+000
+8.87504556250E+005, +2.17847640921E+002, +0.00000000000E+000
+8.93754553125E+005, +2.19763578677E+002, +0.00000000000E+000
+9.00004550000E+005, +2.21526610639E+002, +0.00000000000E+000
+9.06254546875E+005, +2.23533477919E+002, +0.00000000000E+000
+9.12504543750E+005, +2.25143630894E+002, +0.00000000000E+000
+9.18754540625E+005, +2.26916207532E+002, +0.00000000000E+000
+9.25004537500E+005, +2.28734418391E+002, +0.00000000000E+000
+9.31254534375E+005, +2.30465805577E+002, +0.00000000000E+000
+9.37504531250E+005, +2.32341221548E+002, +0.00000000000E+000
+9.43754528125E+005, +2.34068449580E+002, +0.00000000000E+000
+9.50004525000E+005, +2.36026737237E+002, +0.00000000000E+000
+9.56254521875E+005, +2.37798239409E+002, +0.00000000000E+000
+9.62504518750E+005, +2.39667356614E+002, +0.00000000000E+000
+9.68754515625E+005, +2.41332929944E+002, +0.00000000000E+000
+9.75004512500E+005, +2.43492352612E+002, +0.00000000000E+000
+9.81254509375E+005, +2.45335179793E+002, +0.00000000000E+000
+9.87504506250E+005, +2.47180267833E+002, +0.00000000000E+000
+9.93754503125E+005, +2.49060073638E+002, +0.00000000000E+000
+1.00000450000E+006, +2.50590104159E+002, +0.00000000000E+000
+1.00625449688E+006, +2.52704206738E+002, +0.00000000000E+000
+1.01250449375E+006, +2.54448798649E+002, +0.00000000000E+000
+1.01875449063E+006, +2.56754554498E+002, +0.00000000000E+000
+1.02500448750E+006, +2.58350226218E+002, +0.00000000000E+000
+1.03125448438E+006, +2.60441450432E+002, +0.00000000000E+000
+1.03750448125E+006, +2.62507681311E+002, +0.00000000000E+000
+1.04375447813E+006, +2.64002750667E+002, +0.00000000000E+000
+1.05000447500E+006, +2.66047968673E+002, +0.00000000000E+000
+1.05625447188E+006, +2.68330799354E+002, +0.00000000000E+000
+1.06250446875E+006, +2.70147973583E+002, +0.00000000000E+000
+1.06875446563E+006, +2.72336856881E+002, +0.00000000000E+000
+1.07500446250E+006, +2.73976857133E+002, +0.00000000000E+000
+1.08125445938E+006, +2.76198254962E+002, +0.00000000000E+000
+1.08750445625E+006, +2.77907794557E+002, +0.00000000000E+000
+1.09375445313E+006, +2.79966034585E+002, +0.00000000000E+000
+1.10000445000E+006, +2.82000288008E+002, +0.00000000000E+000
+1.10625444687E+006, +2.84041112954E+002, +0.00000000000E+000
+1.11250444375E+006, +2.85597276320E+002, +0.00000000000E+000
+1.11875444063E+006, +2.87706549209E+002, +0.00000000000E+000
+1.12500443750E+006, +2.90019075030E+002, +0.00000000000E+000
+1.13125443438E+006, +2.92125362300E+002, +0.00000000000E+000
+1.13750443125E+006, +2.94062919841E+002, +0.00000000000E+000
+1.14375442813E+006, +2.95738890172E+002, +0.00000000000E+000
+1.15000442500E+006, +2.98395449807E+002, +0.00000000000E+000
+1.15625442188E+006, +3.00639389401E+002, +0.00000000000E+000
+1.16250441875E+006, +3.02772913445E+002, +0.00000000000E+000
+1.16875441562E+006, +3.04233614571E+002, +0.00000000000E+000
+1.17500441250E+006, +3.06888567818E+002, +0.00000000000E+000
+1.18125440938E+006, +3.08812354616E+002, +0.00000000000E+000
+1.18750440625E+006, +3.10883526100E+002, +0.00000000000E+000
+1.19375440313E+006, +3.13087718903E+002, +0.00000000000E+000
+1.20000440000E+006, +3.15250130496E+002, +0.00000000000E+000
+1.20625439688E+006, +3.17337059443E+002, +0.00000000000E+000
+1.21250439375E+006, +3.19602861865E+002, +0.00000000000E+000
+1.21875439063E+006, +3.21616283886E+002, +0.00000000000E+000
+1.22500438750E+006, +3.23671536659E+002, +0.00000000000E+000
+1.23125438437E+006, +3.26081365760E+002, +0.00000000000E+000
+1.23750438125E+006, +3.28412960466E+002, +0.00000000000E+000
+1.24375437813E+006, +3.30715777045E+002, +0.00000000000E+000
+1.25000437500E+006, +3.32722837675E+002, +0.00000000000E+000
+1.25625437188E+006, +3.35034213647E+002, +0.00000000000E+000
+1.26250436875E+006, +3.37496520728E+002, +0.00000000000E+000
+1.26875436563E+006, +3.39535928335E+002, +0.00000000000E+000
+1.27500436250E+006, +3.41829610082E+002, +0.00000000000E+000
+1.28125435938E+006, +3.43849166427E+002, +0.00000000000E+000
+1.28750435625E+006, +3.46613032153E+002, +0.00000000000E+000
+1.29375435312E+006, +3.48622553500E+002, +0.00000000000E+000
+1.30000435000E+006, +3.50882291710E+002, +0.00000000000E+000
+1.30625434688E+006, +3.53315192280E+002, +0.00000000000E+000
+1.31250434375E+006, +3.55451176775E+002, +0.00000000000E+000
+1.31875434063E+006, +3.58165448860E+002, +0.00000000000E+000
+1.32500433750E+006, +3.60121449405E+002, +0.00000000000E+000
+1.33125433438E+006, +3.62671155226E+002, +0.00000000000E+000
+1.33750433125E+006, +3.65197966431E+002, +0.00000000000E+000
+1.34375432813E+006, +3.67773542839E+002, +0.00000000000E+000
+1.35000432500E+006, +3.70061940747E+002, +0.00000000000E+000
+1.35625432187E+006, +3.72307271412E+002, +0.00000000000E+000
+1.36250431875E+006, +3.74804758767E+002, +0.00000000000E+000
+1.36875431563E+006, +3.77410177768E+002, +0.00000000000E+000
+1.37500431250E+006, +3.79587074377E+002, +0.00000000000E+000
+1.38125430938E+006, +3.82141045330E+002, +0.00000000000E+000
+1.38750430625E+006, +3.84492630136E+002, +0.00000000000E+000
+1.39375430313E+006, +3.86885647143E+002, +0.00000000000E+000
+1.40000430000E+006, +3.89725276689E+002, +0.00000000000E+000
+1.40625429688E+006, +3.92200079122E+002, +0.00000000000E+000
+1.41250429375E+006, +3.95073500019E+002, +0.00000000000E+000
+1.41875429062E+006, +3.97428749848E+002, +0.00000000000E+000
+1.42500428750E+006, +3.99926070091E+002, +0.00000000000E+000
+1.43125428438E+006, +4.02449211223E+002, +0.00000000000E+000
+1.43750428125E+006, +4.04727548494E+002, +0.00000000000E+000
+1.44375427813E+006, +4.07630945519E+002, +0.00000000000E+000
+1.45000427500E+006, +4.10215362984E+002, +0.00000000000E+000
+1.45625427188E+006, +4.13161654593E+002, +0.00000000000E+000
+1.46250426875E+006, +4.15594239917E+002, +0.00000000000E+000
+1.46875426563E+006, +4.18417883456E+002, +0.00000000000E+000
+1.47500426250E+006, +4.20936800642E+002, +0.00000000000E+000
+1.48125425937E+006, +4.23949213235E+002, +0.00000000000E+000
+1.48750425625E+006, +4.26588129216E+002, +0.00000000000E+000
+1.49375425313E+006, +4.29321821661E+002, +0.00000000000E+000
+1.50000425000E+006, +4.32300188964E+002, +0.00000000000E+000
+1.50625424688E+006, +4.34825048052E+002, +0.00000000000E+000
+1.51250424375E+006, +4.38131090619E+002, +0.00000000000E+000
+1.51875424063E+006, +4.40713130285E+002, +0.00000000000E+000
+1.52500423750E+006, +4.43460815036E+002, +0.00000000000E+000
+1.53125423438E+006, +4.46305759468E+002, +0.00000000000E+000
+1.53750423125E+006, +4.49065704564E+002, +0.00000000000E+000
+1.54375422812E+006, +4.51935161212E+002, +0.00000000000E+000
+1.55000422500E+006, +4.54839907161E+002, +0.00000000000E+000
+1.55625422188E+006, +4.57925515631E+002, +0.00000000000E+000
+1.56250421875E+006, +4.60879791447E+002, +0.00000000000E+000
+1.56875421563E+006, +4.64198259910E+002, +0.00000000000E+000
+1.57500421250E+006, +4.66417127576E+002, +0.00000000000E+000
+1.58125420938E+006, +4.69560790167E+002, +0.00000000000E+000
+1.58750420625E+006, +4.72542071710E+002, +0.00000000000E+000
+1.59375420313E+006, +4.75938549767E+002, +0.00000000000E+000
+1.60000420000E+006, +4.78890209044E+002, +0.00000000000E+000
+1.60625419687E+006, +4.82065363309E+002, +0.00000000000E+000
+1.61250419375E+006, +4.85687031694E+002, +0.00000000000E+000
+1.61875419063E+006, +4.87844947824E+002, +0.00000000000E+000
+1.62500418750E+006, +4.91825215583E+002, +0.00000000000E+000
+1.63125418438E+006, +4.94488638073E+002, +0.00000000000E+000
+1.63750418125E+006, +4.97191748843E+002, +0.00000000000E+000
+1.64375417813E+006, +5.01095321124E+002, +0.00000000000E+000
+1.65000417500E+006, +5.04291328569E+002, +0.00000000000E+000
+1.65625417188E+006, +5.07595911350E+002, +0.00000000000E+000
+1.66250416875E+006, +5.11366477963E+002, +0.00000000000E+000
+1.66875416562E+006, +5.13818983413E+002, +0.00000000000E+000
+1.67500416250E+006, +5.17214357279E+002, +0.00000000000E+000
+1.68125415938E+006, +5.21224462592E+002, +0.00000000000E+000
+1.68750415625E+006, +5.24357160453E+002, +0.00000000000E+000
+1.69375415313E+006, +5.27725789614E+002, +0.00000000000E+000
+1.70000415000E+006, +5.31348980963E+002, +0.00000000000E+000
+1.70625414688E+006, +5.34173277916E+002, +0.00000000000E+000
+1.71250414375E+006, +5.37865157330E+002, +0.00000000000E+000
+1.71875414063E+006, +5.41215145382E+002, +0.00000000000E+000
+1.72500413750E+006, +5.44965021593E+002, +0.00000000000E+000
+1.73125413437E+006, +5.48511320559E+002, +0.00000000000E+000
+1.73750413125E+006, +5.51969936983E+002, +0.00000000000E+000
+1.74375412813E+006, +5.55978021866E+002, +0.00000000000E+000
+1.75000412500E+006, +5.59226693151E+002, +0.00000000000E+000
+1.75625412188E+006, +5.63196142882E+002, +0.00000000000E+000
+1.76250411875E+006, +5.66806766695E+002, +0.00000000000E+000
+1.76875411563E+006, +5.70243720197E+002, +0.00000000000E+000
+1.77500411250E+006, +5.73947742268E+002, +0.00000000000E+000
+1.78125410938E+006, +5.78033180028E+002, +0.00000000000E+000
+1.78750410625E+006, +5.80830643891E+002, +0.00000000000E+000
+1.79375410312E+006, +5.85501793854E+002, +0.00000000000E+000
+1.80000410000E+006, +5.88479579750E+002, +0.00000000000E+000
+1.80625409688E+006, +5.93176087085E+002, +0.00000000000E+000
+1.81250409375E+006, +5.97307947019E+002, +0.00000000000E+000
+1.81875409063E+006, +6.01177021785E+002, +0.00000000000E+000
+1.82500408750E+006, +6.05478353332E+002, +0.00000000000E+000
+1.83125408438E+006, +6.10298400006E+002, +0.00000000000E+000
+1.83750408125E+006, +6.13549080625E+002, +0.00000000000E+000
+1.84375407813E+006, +6.17023951982E+002, +0.00000000000E+000
+1.85000407500E+006, +6.21558659971E+002, +0.00000000000E+000
+1.85625407187E+006, +6.25876340482E+002, +0.00000000000E+000
+1.86250406875E+006, +6.30708529112E+002, +0.00000000000E+000
+1.86875406563E+006, +6.34110625632E+002, +0.00000000000E+000
+1.87500406250E+006, +6.38344792188E+002, +0.00000000000E+000
+1.88125405938E+006, +6.42469810247E+002, +0.00000000000E+000
+1.88750405625E+006, +6.47717290590E+002, +0.00000000000E+000
+1.89375405313E+006, +6.50860695486E+002, +0.00000000000E+000
+1.90000405000E+006, +6.56333631866E+002, +0.00000000000E+000
+1.90625404688E+006, +6.60271026517E+002, +0.00000000000E+000
+1.91250404375E+006, +6.65400008386E+002, +0.00000000000E+000
+1.91875404062E+006, +6.68808493681E+002, +0.00000000000E+000
+1.92500403750E+006, +6.73691141305E+002, +0.00000000000E+000
+1.93125403438E+006, +6.79566399160E+002, +0.00000000000E+000
+1.93750403125E+006, +6.83431714602E+002, +0.00000000000E+000
+1.94375402813E+006, +6.88049610639E+002, +0.00000000000E+000
+1.95000402500E+006, +6.93328188629E+002, +0.00000000000E+000
+1.95625402188E+006, +6.96892150529E+002, +0.00000000000E+000
+1.96250401875E+006, +7.02567166514E+002, +0.00000000000E+000
+1.96875401563E+006, +7.07212213203E+002, +0.00000000000E+000
+1.97500401250E+006, +7.13787173002E+002, +0.00000000000E+000
+1.98125400937E+006, +7.17294592716E+002, +0.00000000000E+000
+1.98750400625E+006, +7.22892951711E+002, +0.00000000000E+000
+1.99375400313E+006, +7.28141127029E+002, +0.00000000000E+000
+2.00000400000E+006, +7.32793503025E+002, +0.00000000000E+000
