"# Channel 1"
"# Trace 1"
Frequency, Formatted Data, Formatted Data
+5.00000000000E+000, +1.08355165601E-001, +0.00000000000E+000
+6.25499687500E+003, +6.15453248000E-001, +0.00000000000E+000
+1.25049937500E+004, +1.14406741732E+000, +0.00000000000E+000
+1.87549906250E+004, +1.69687539134E+000, +0.00000000000E+000
+2.50049875000E+004, +2.25349241067E+000, +0.00000000000E+000
+3.12549843750E+004, +2.81200142878E+000, +0.00000000000E+000
+3.75049812500E+004, +3.37003533525E+000, +0.00000000000E+000
+4.37549781250E+004, +3.92766859792E+000, +0.00000000000E+000
+5.00049750000E+004, +4.48645575945E+000, +0.00000000000E+000
+5.62549718750E+004, +5.04502263590E+000, +0.00000000000E+000
+6.25049687500E+004, +5.60339100041E+000, +0.00000000000E+000
+6.87549656250E+004, +6.16265053720E+000, +0.00000000000E+000
+7.50049625000E+004, +6.72304471466E+000, +0.00000000000E+000
+8.12549593750E+004, +7.28232570442E+000, +0.00000000000E+000
+8.75049562500E+004, +7.84346388822E+000, +0.00000000000E+000
+9.37549531250E+004, +8.41648393509E+000, +0.00000000000E+000
+1.00004950000E+005, +8.97783421338E+000, +0.00000000000E+000
+1.06254946875E+005, +9.54104996595E+000, +0.00000000000E+000
+1.12504943750E+005, +1.01028047562E+001, +0.00000000000E+000
+1.18754940625E+005, +1.06658628015E+001, +0.00000000000E+000
+1.25004937500E+005, +1.12291007656E+001, +0.00000000000E+000
+1.31254934375E+005, +1.17922613108E+001, +0.00000000000E+000
+1.37504931250E+005, +1.23577132270E+001, +0.00000000000E+000
+1.43754928125E+005, +1.29208951771E+001, +0.00000000000E+000
+1.50004925000E+005, +1.34852349821E+001, +0.00000000000E+000
+1.56254921875E+005, +1.40497065948E+001, +0.00000000000E+000
+1.62504918750E+005, +1.46139292429E+001, +0.00000000000E+000
+1.68754915625E+005, +1.51815500573E+001, +0.00000000000E+000
+1.75004912500E+005, +1.57443409595E+001, +0.00000000000E+000
+1.81254909375E+005, +1.63104674182E+001, +0.00000000000E+000
+1.87504906250E+005, +1.68742402597E+001, +0.00000000000E+000
+1.93754903125E+005, +1.74395655755E+001, +0.00000000000E+000
+2.00004900000E+005, +1.80048444537E+001, +0.00000000000E+000
+2.06254896875E+005, +1.85692334226E+001, +0.00000000000E+000
+2.12504893750E+005, +1.91345750028E+001, +0.00000000000E+000
+2.18754890625E+005, +1.97024591466E+001, +0.00000000000E+000
+2.25004887500E+005, +2.02661989715E+001, +0.00000000000E+000
+2.31254884375E+005, +2.08339916243E+001, +0.00000000000E+000
+2.37504881250E+005, +2.13973511473E+001, +0.00000000000E+000
+2.43754878125E+005, +2.19653463018E+001, +0.00000000000E+000
+2.50004875000E+005, +2.25325919715E+001, +0.00000000000E+000
+2.56254871875E+005, +2.30998328586E+001, +0.00000000000E+000
+2.62504868750E+005, +2.36630705097E+001, +0.00000000000E+000
+2.68754865625E+005, +2.42299969570E+001, +0.00000000000E+000
+2.75004862500E+005, +2.47967877737E+001, +0.00000000000E+000
+2.81254859375E+005, +2.53678058532E+001, +0.00000000000E+000
+2.87504856250E+005, +2.59353512084E+001, +0.00000000000E+000
+2.93754853125E+005, +2.65069805961E+001, +0.00000000000E+000
+3.00004850000E+005, +2.70790872212E+001, +0.00000000000E+000
+3.06254846875E+005, +2.76456048246E+001, +0.00000000000E+000
+3.12504843750E+005, +2.82132070571E+001, +0.00000000000E+000
+3.18754840625E+005, +2.87852651476E+001, +0.00000000000E+000
+3.25004837500E+005, +2.93520831913E+001, +0.00000000000E+000
+3.31254834375E+005, +2.99191339777E+001, +0.00000000000E+000
+3.37504831250E+005, +3.04866652526E+001, +0.00000000000E+000
+3.43754828125E+005, +3.10598043214E+001, +0.00000000000E+000
+3.50004825000E+005, +3.16268466318E+001, +0.00000000000E+000
+3.56254821875E+005, +3.21942585320E+001, +0.00000000000E+000
+3.62504818750E+005, +3.27627722657E+001, +0.00000000000E+000
+3.68754815625E+005, +3.33371220892E+001, +0.00000000000E+000
+3.75004812500E+005, +3.39055501631E+001, +0.00000000000E+000
+3.81254809375E+005, +3.44731200426E+001, +0.00000000000E+000
+3.87504806250E+005, +3.50416899752E+001, +0.00000000000E+000
+3.93754803125E+005, +3.56150858796E+001, +0.00000000000E+000
+4.00004800000E+005, +3.61838483998E+001, +0.00000000000E+000
+4.06254796875E+005, +3.67523087093E+001, +0.00000000000E+000
+4.12504793750E+005, +3.73268315996E+001, +0.00000000000E+000
+4.18754790625E+005, +3.78957889637E+001, +0.00000000000E+000
+4.25004787500E+005, +3.84656093793E+001, +0.00000000000E+000
+4.31254784375E+005, +3.90407313324E+001, +0.00000000000E+000
+4.37504781250E+005, +3.96103087722E+001, +0.00000000000E+000
+4.43754778125E+005, +4.01794856805E+001, +0.00000000000E+000
+4.50004775000E+005, +4.07582056919E+001, +0.00000000000E+000
+4.56254771875E+005, +4.13264988625E+001, +0.00000000000E+000
+4.62504768750E+005, +4.18970706234E+001, +0.00000000000E+000
+4.68754765625E+005, +4.24681110773E+001, +0.00000000000E+000
+4.75004762500E+005, +4.30449589946E+001, +0.00000000000E+000
+4.81254759375E+005, +4.36152830422E+001, +0.00000000000E+000
+4.87504756250E+005, +4.41870566884E+001, +0.00000000000E+000
+4.93754753125E+005, +4.47576047192E+001, +0.00000000000E+000
+5.00004750000E+005, +4.53361511833E+001, +0.00000000000E+000
+5.06254746875E+005, +4.59064665821E+001, +0.00000000000E+000
+5.12504743750E+005, +4.64867309882E+001, +0.00000000000E+000
+5.18754740625E+005, +4.70575893918E+001, +0.00000000000E+000
+5.25004737500E+005, +4.76335170970E+001, +0.00000000000E+000
+5.31254734375E+005, +4.82134516842E+001, +0.00000000000E+000
+5.37504731250E+005, +4.87862442455E+001, +0.00000000000E+000
+5.43754728125E+005, +4.93586321125E+001, +0.00000000000E+000
+5.50004725000E+005, +4.99329483211E+001, +0.00000000000E+000
+5.56254721875E+005, +5.05047048172E+001, +0.00000000000E+000
+5.62504718750E+005, +5.10805288106E+001, +0.00000000000E+000
+5.68754715625E+005, +5.16547399558E+001, +0.00000000000E+000
+5.75004712500E+005, +5.22391412202E+001, +0.00000000000E+000
+5.81254709375E+005, +5.28218667747E+001, +0.00000000000E+000
+5.87504706250E+005, +5.33965086425E+001, +0.00000000000E+000
+5.93754703125E+005, +5.39711463570E+001, +0.00000000000E+000
+6.00004700000E+005, +5.45473146856E+001, +0.00000000000E+000
+6.06254696875E+005, +5.51221926052E+001, +0.00000000000E+000
+6.12504693750E+005, +5.57076016884E+001, +0.00000000000E+000
+6.18754690625E+005, +5.62854449121E+001, +0.00000000000E+000
+6.25004687500E+005, +5.68658771437E+001, +0.00000000000E+000
+6.31254684375E+005, +5.74415539802E+001, +0.00000000000E+000
+6.37504681250E+005, +5.80193106202E+001, +0.00000000000E+000
+6.43754678125E+005, +5.86075699858E+001, +0.00000000000E+000
+6.50004675000E+005, +5.91861386896E+001, +0.00000000000E+000
+6.56254671875E+005, +5.97638236128E+001, +0.00000000000E+000
+6.62504668750E+005, +6.03436053514E+001, +0.00000000000E+000
+6.68754665625E+005, +6.09235152082E+001, +0.00000000000E+000
+6.75004662500E+005, +6.15022920859E+001, +0.00000000000E+000
+6.81254659375E+005, +6.20925264180E+001, +0.00000000000E+000
+6.87504656250E+005, +6.26732932852E+001, +0.00000000000E+000
+6.93754653125E+005, +6.32529424651E+001, +0.00000000000E+000
+7.00004650000E+005, +6.38353562712E+001, +0.00000000000E+000
+7.06254646875E+005, +6.44157481406E+001, +0.00000000000E+000
+7.12504643750E+005, +6.50098361507E+001, +0.00000000000E+000
+7.18754640625E+005, +6.55909933444E+001, +0.00000000000E+000
+7.25004637500E+005, +6.61751009893E+001, +0.00000000000E+000
+7.31254634375E+005, +6.67575474779E+001, +0.00000000000E+000
+7.37504631250E+005, +6.72248926485E+001, +0.00000000000E+000
+7.43754628125E+005, +6.78125080945E+001, +0.00000000000E+000
+7.50004625000E+005, +6.84119250055E+001, +0.00000000000E+000
+7.56254621875E+005, +6.90004412761E+001, +0.00000000000E+000
+7.62504618750E+005, +6.95880075148E+001, +0.00000000000E+000
+7.68754615625E+005, +7.01796586163E+001, +0.00000000000E+000
+7.75004612500E+005, +7.07812764864E+001, +0.00000000000E+000
+7.81254609375E+005, +7.13728378013E+001, +0.00000000000E+000
+7.87504606250E+005, +7.19555967734E+001, +0.00000000000E+000
+7.93754603125E+005, +7.25451084743E+001, +0.00000000000E+000
+8.00004600000E+005, +7.31368275324E+001, +0.00000000000E+000
+8.06254596875E+005, +7.37275779831E+001, +0.00000000000E+000
+8.12504593750E+005, +7.43189955027E+001, +0.00000000000E+000
+8.18754590625E+005, +7.49241423853E+001, +0.00000000000E+000
+8.25004587500E+005, +7.55175255643E+001, +0.00000000000E+000
+8.31254584375E+005, +7.61073025358E+001, +0.00000000000E+000
+8.37504581250E+005, +7.67017394105E+001, +0.00000000000E+000
+8.43754578125E+005, +7.72947553167E+001, +0.00000000000E+000
+8.50004575000E+005, +7.78895186708E+001, +0.00000000000E+000
+8.56254571875E+005, +7.84834438707E+001, +0.00000000000E+000
+8.62504568750E+005, +7.90792185624E+001, +0.00000000000E+000
+8.68754565625E+005, +7.96752745658E+001, +0.00000000000E+000
+8.75004562500E+005, +8.02697118802E+001, +0.00000000000E+000
+8.81254559375E+005, +8.08784609487E+001, +0.00000000000E+000
+8.87504556250E+005, +8.14768240232E+001, +0.00000000000E+000
+8.93754553125E+005, +8.20752094803E+001, +0.00000000000E+000
+9.00004550000E+005, +8.26708279764E+001, +0.00000000000E+000
+9.06254546875E+005, +8.32720581115E+001, +0.00000000000E+000
+9.12504543750E+005, +8.38745364117E+001, +0.00000000000E+000
+9.18754540625E+005, +8.44735104670E+001, +0.00000000000E+000
+9.25004537500E+005, +8.50700387894E+001, +0.00000000000E+000
+9.31254534375E+005, +8.56706262992E+001, +0.00000000000E+000
+9.37504531250E+005, +8.62691750421E+001, +0.00000000000E+000
+9.43754528125E+005, +8.68704372644E+001, +0.00000000000E+000
+9.50004525000E+005, +8.74705089047E+001, +0.00000000000E+000
+9.56254521875E+005, +8.80747369330E+001, +0.00000000000E+000
+9.62504518750E+005, +8.86748769530E+001, +0.00000000000E+000
+9.68754515625E+005, +8.92804258262E+001, +0.00000000000E+000
+9.75004512500E+005, +8.98963772124E+001, +0.00000000000E+000
+9.81254509375E+005, +9.04974730338E+001, +0.00000000000E+000
+9.87504506250E+005, +9.11053563384E+001, +0.00000000000E+000
+9.93754503125E+005, +9.17103666710E+001, +0.00000000000E+000
+1.00000450000E+006, +9.23132666405E+001, +0.00000000000E+000
+1.00625449688E+006, +9.29183059428E+001, +0.00000000000E+000
+1.01250449375E+006, +9.35227382644E+001, +0.00000000000E+000
+1.01875449063E+006, +9.41304186038E+001, +0.00000000000E+000
+1.02500448750E+006, +9.47390811592E+001, +0.00000000000E+000
+1.03125448438E+006, +9.53449696315E+001, +0.00000000000E+000
+1.03750448125E+006, +9.59524534694E+001, +0.00000000000E+000
+1.04375447813E+006, +9.65708513392E+001, +0.00000000000E+000
+1.05000447500E+006, +9.71773666536E+001, +0.00000000000E+000
+1.05625447188E+006, +9.77895072198E+001, +0.00000000000E+000
+1.06250446875E+006, +9.83973474108E+001, +0.00000000000E+000
+1.06875446563E+006, +9.90242294400E+001, +0.00000000000E+000
+1.07500446250E+006, +9.96347965212E+001, +0.00000000000E+000
+1.08125445937E+006, +1.00247604914E+002, +0.00000000000E+000
+1.08750445625E+006, +1.00860352250E+002, +0.00000000000E+000
+1.09375445313E+006, +1.01473217151E+002, +0.00000000000E+000
+1.10000445000E+006, +1.02086979761E+002, +0.00000000000E+000
+1.10625444687E+006, +1.02701817301E+002, +0.00000000000E+000
+1.11250444375E+006, +1.03316452612E+002, +0.00000000000E+000
+1.11875444063E+006, +1.03947591616E+002, +0.00000000000E+000
+1.12500443750E+006, +1.04563909095E+002, +0.00000000000E+000
+1.13125443438E+006, +1.05180452365E+002, +0.00000000000E+000
+1.13750443125E+006, +1.05797186536E+002, +0.00000000000E+000
+1.14375442812E+006, +1.06393229757E+002, +0.00000000000E+000
+1.15000442500E+006, +1.07010297159E+002, +0.00000000000E+000
+1.15625442188E+006, +1.07628774787E+002, +0.00000000000E+000
+1.16250441875E+006, +1.08262530056E+002, +0.00000000000E+000
+1.16875441562E+006, +1.08880691430E+002, +0.00000000000E+000
+1.17500441250E+006, +1.09504036012E+002, +0.00000000000E+000
+1.18125440938E+006, +1.10124051562E+002, +0.00000000000E+000
+1.18750440625E+006, +1.10746067819E+002, +0.00000000000E+000
+1.19375440313E+006, +1.11368986351E+002, +0.00000000000E+000
+1.20000440000E+006, +1.12009437003E+002, +0.00000000000E+000
+1.20625439687E+006, +1.12634190038E+002, +0.00000000000E+000
+1.21250439375E+006, +1.13258146887E+002, +0.00000000000E+000
+1.21875439063E+006, +1.13884389971E+002, +0.00000000000E+000
+1.22500438750E+006, +1.14508094971E+002, +0.00000000000E+000
+1.23125438437E+006, +1.15135961758E+002, +0.00000000000E+000
+1.23750438125E+006, +1.15779731033E+002, +0.00000000000E+000
+1.24375437813E+006, +1.16406251986E+002, +0.00000000000E+000
+1.25000437500E+006, +1.17042536523E+002, +0.00000000000E+000
+1.25625437188E+006, +1.17670196338E+002, +0.00000000000E+000
+1.26250436875E+006, +1.18304425063E+002, +0.00000000000E+000
+1.26875436562E+006, +1.18952732253E+002, +0.00000000000E+000
+1.27500436250E+006, +1.19581802181E+002, +0.00000000000E+000
+1.28125435938E+006, +1.20210758996E+002, +0.00000000000E+000
+1.28750435625E+006, +1.20845274700E+002, +0.00000000000E+000
+1.29375435312E+006, +1.21481052698E+002, +0.00000000000E+000
+1.30000435000E+006, +1.22114058800E+002, +0.00000000000E+000
+1.30625434688E+006, +1.22770269618E+002, +0.00000000000E+000
+1.31250434375E+006, +1.23404267390E+002, +0.00000000000E+000
+1.31875434063E+006, +1.24044936426E+002, +0.00000000000E+000
+1.32500433750E+006, +1.24678505286E+002, +0.00000000000E+000
+1.33125433437E+006, +1.25321925617E+002, +0.00000000000E+000
+1.33750433125E+006, +1.25955968458E+002, +0.00000000000E+000
+1.34375432813E+006, +1.26619834385E+002, +0.00000000000E+000
+1.35000432500E+006, +1.27259148548E+002, +0.00000000000E+000
+1.35625432187E+006, +1.27899207131E+002, +0.00000000000E+000
+1.36250431875E+006, +1.28543829226E+002, +0.00000000000E+000
+1.36875431563E+006, +1.29189563697E+002, +0.00000000000E+000
+1.37500431250E+006, +1.29833168453E+002, +0.00000000000E+000
+1.38125430938E+006, +1.30494453404E+002, +0.00000000000E+000
+1.38750430625E+006, +1.31141059472E+002, +0.00000000000E+000
+1.39375430312E+006, +1.31792345718E+002, +0.00000000000E+000
+1.40000430000E+006, +1.32435482571E+002, +0.00000000000E+000
+1.40625429688E+006, +1.33084726039E+002, +0.00000000000E+000
+1.41250429375E+006, +1.33755159648E+002, +0.00000000000E+000
+1.41875429062E+006, +1.34406601929E+002, +0.00000000000E+000
+1.42500428750E+006, +1.35055015960E+002, +0.00000000000E+000
+1.43125428438E+006, +1.35706674385E+002, +0.00000000000E+000
+1.43750428125E+006, +1.36361848010E+002, +0.00000000000E+000
+1.44375427813E+006, +1.37012137133E+002, +0.00000000000E+000
+1.45000427500E+006, +1.37687472371E+002, +0.00000000000E+000
+1.45625427187E+006, +1.38343040840E+002, +0.00000000000E+000
+1.46250426875E+006, +1.39001101920E+002, +0.00000000000E+000
+1.46875426563E+006, +1.39654284953E+002, +0.00000000000E+000
+1.47500426250E+006, +1.40307859823E+002, +0.00000000000E+000
+1.48125425937E+006, +1.40972572431E+002, +0.00000000000E+000
+1.48750425625E+006, +1.41634918999E+002, +0.00000000000E+000
+1.49375425313E+006, +1.42317765524E+002, +0.00000000000E+000
+1.50000425000E+006, +1.42981144932E+002, +0.00000000000E+000
+1.50625424688E+006, +1.43647004880E+002, +0.00000000000E+000
+1.51250424375E+006, +1.44312018366E+002, +0.00000000000E+000
+1.51875424062E+006, +1.44975314410E+002, +0.00000000000E+000
+1.52500423750E+006, +1.45649296964E+002, +0.00000000000E+000
+1.53125423438E+006, +1.46316026167E+002, +0.00000000000E+000
+1.53750423125E+006, +1.46984789545E+002, +0.00000000000E+000
+1.54375422812E+006, +1.47683669205E+002, +0.00000000000E+000
+1.55000422500E+006, +1.48354942365E+002, +0.00000000000E+000
+1.55625422188E+006, +1.49025758485E+002, +0.00000000000E+000
+1.56250421875E+006, +1.49691073773E+002, +0.00000000000E+000
+1.56875421563E+006, +1.50362977410E+002, +0.00000000000E+000
+1.57500421250E+006, +1.51038096100E+002, +0.00000000000E+000
+1.58125420937E+006, +1.51712978625E+002, +0.00000000000E+000
+1.58750420625E+006, +1.52412391875E+002, +0.00000000000E+000
+1.59375420313E+006, +1.53090934004E+002, +0.00000000000E+000
+1.60000420000E+006, +1.53769044782E+002, +0.00000000000E+000
+1.60625419687E+006, +1.54448915642E+002, +0.00000000000E+000
+1.61250419375E+006, +1.55129926843E+002, +0.00000000000E+000
+1.61875419063E+006, +1.55815289467E+002, +0.00000000000E+000
+1.62500418750E+006, +1.56497305331E+002, +0.00000000000E+000
+1.63125418438E+006, +1.57181741747E+002, +0.00000000000E+000
+1.63750418125E+006, +1.57899217497E+002, +0.00000000000E+000
+1.64375417812E+006, +1.58586084573E+002, +0.00000000000E+000
+1.65000417500E+006, +1.59277814074E+002, +0.00000000000E+000
+1.65625417188E+006, +1.59959610681E+002, +0.00000000000E+000
+1.66250416875E+006, +1.60654430365E+002, +0.00000000000E+000
+1.66875416562E+006, +1.61347620760E+002, +0.00000000000E+000
+1.67500416250E+006, +1.62041029358E+002, +0.00000000000E+000
+1.68125415938E+006, +1.62738007686E+002, +0.00000000000E+000
+1.68750415625E+006, +1.63454009054E+002, +0.00000000000E+000
+1.69375415313E+006, +1.64154840096E+002, +0.00000000000E+000
+1.70000415000E+006, +1.64849459891E+002, +0.00000000000E+000
+1.70625414687E+006, +1.65551816001E+002, +0.00000000000E+000
+1.71250414375E+006, +1.66295427792E+002, +0.00000000000E+000
+1.71875414063E+006, +1.66994124142E+002, +0.00000000000E+000
+1.72500413750E+006, +1.67699406375E+002, +0.00000000000E+000
+1.73125413437E+006, +1.68400118091E+002, +0.00000000000E+000
+1.73750413125E+006, +1.69131233005E+002, +0.00000000000E+000
+1.74375412813E+006, +1.69837369945E+002, +0.00000000000E+000
+1.75000412500E+006, +1.70546346807E+002, +0.00000000000E+000
+1.75625412188E+006, +1.71252977809E+002, +0.00000000000E+000
+1.76250411875E+006, +1.71968500907E+002, +0.00000000000E+000
+1.76875411562E+006, +1.72669908621E+002, +0.00000000000E+000
+1.77500411250E+006, +1.73405740571E+002, +0.00000000000E+000
+1.78125410938E+006, +1.74121868946E+002, +0.00000000000E+000
+1.78750410625E+006, +1.74834470348E+002, +0.00000000000E+000
+1.79375410312E+006, +1.75553705602E+002, +0.00000000000E+000
+1.80000410000E+006, +1.76268458386E+002, +0.00000000000E+000
+1.80625409688E+006, +1.76989353251E+002, +0.00000000000E+000
+1.81250409375E+006, +1.77703833732E+002, +0.00000000000E+000
+1.81875409063E+006, +1.78449312007E+002, +0.00000000000E+000
+1.82500408750E+006, +1.79176349322E+002, +0.00000000000E+000
+1.83125408437E+006, +1.79895903273E+002, +0.00000000000E+000
+1.83750408125E+006, +1.80616006748E+002, +0.00000000000E+000
+1.84375407813E+006, +1.81346221135E+002, +0.00000000000E+000
+1.85000407500E+006, +1.82071376585E+002, +0.00000000000E+000
+1.85625407187E+006, +1.82830809456E+002, +0.00000000000E+000
+1.86250406875E+006, +1.83560411005E+002, +0.00000000000E+000
+1.86875406563E+006, +1.84292573718E+002, +0.00000000000E+000
+1.87500406250E+006, +1.85031108928E+002, +0.00000000000E+000
+1.88125405938E+006, +1.85761312799E+002, +0.00000000000E+000
+1.88750405625E+006, +1.86497224586E+002, +0.00000000000E+000
+1.89375405312E+006, +1.87236221489E+002, +0.00000000000E+000
+1.90000405000E+006, +1.88005353431E+002, +0.00000000000E+000
+1.90625404688E+006, +1.88745600190E+002, +0.00000000000E+000
+1.91250404375E+006, +1.89493621928E+002, +0.00000000000E+000
+1.91875404062E+006, +1.90230761702E+002, +0.00000000000E+000
+1.92500403750E+006, +1.90973581107E+002, +0.00000000000E+000
+1.93125403438E+006, +1.91714209573E+002, +0.00000000000E+000
+1.93750403125E+006, +1.92464503300E+002, +0.00000000000E+000
+1.94375402813E+006, +1.93211902859E+002, +0.00000000000E+000
+1.95000402500E+006, +1.93989073175E+002, +0.00000000000E+000
+1.95625402187E+006, +1.94741642259E+002, +0.00000000000E+000
+1.96250401875E+006, +1.95496544906E+002, +0.00000000000E+000
+1.96875401563E+006, +1.96244659176E+002, +0.00000000000E+000
+1.97500401250E+006, +1.97043944258E+002, +0.00000000000E+000
+1.98125400937E+006, +1.97789990626E+002, +0.00000000000E+000
+1.98750400625E+006, +1.98551965305E+002, +0.00000000000E+000
+1.99375400313E+006, +1.99345961248E+002, +0.00000000000E+000
+2.00000400000E+006, +2.00101960545E+002, +0.00000000000E+000
