"# Channel 1"
"# Trace 1"
Frequency, Formatted Data, Formatted Data
+5.00000000000E+000, +1.26490300087E-001, +0.00000000000E+000
+6.25499687500E+003, +7.82669499771E-001, +0.00000000000E+000
+1.25049937500E+004, +1.50514126652E+000, +0.00000000000E+000
+1.87549906250E+004, +2.24504947818E+000, +0.00000000000E+000
+2.50049875000E+004, +2.98818105975E+000, +0.00000000000E+000
+3.12549843750E+004, +3.73246571684E+000, +0.00000000000E+000
+3.75049812500E+004, +4.47539862977E+000, +0.00000000000E+000
+4.37549781250E+004, +5.21808894631E+000, +0.00000000000E+000
+5.00049750000E+004, +5.96180283384E+000, +0.00000000000E+000
+5.62549718750E+004, +6.70544766250E+000, +0.00000000000E+000
+6.25049687500E+004, +7.44829840003E+000, +0.00000000000E+000
+6.87549656250E+004, +8.19206832590E+000, +0.00000000000E+000
+7.50049625000E+004, +8.93807618886E+000, +0.00000000000E+000
+8.12549593750E+004, +9.68226381441E+000, +0.00000000000E+000
+8.75049562500E+004, +1.04288101476E+001, +0.00000000000E+000
+9.37549531250E+004, +1.11885949417E+001, +0.00000000000E+000
+1.00004950000E+005, +1.19356472061E+001, +0.00000000000E+000
+1.06254946875E+005, +1.26853273723E+001, +0.00000000000E+000
+1.12504943750E+005, +1.34324927457E+001, +0.00000000000E+000
+1.18754940625E+005, +1.41814467075E+001, +0.00000000000E+000
+1.25004937500E+005, +1.49305879168E+001, +0.00000000000E+000
+1.31254934375E+005, +1.56799265794E+001, +0.00000000000E+000
+1.37504931250E+005, +1.64317957440E+001, +0.00000000000E+000
+1.43754928125E+005, +1.71808049281E+001, +0.00000000000E+000
+1.50004925000E+005, +1.79317119053E+001, +0.00000000000E+000
+1.56254921875E+005, +1.86830841077E+001, +0.00000000000E+000
+1.62504918750E+005, +1.94342058799E+001, +0.00000000000E+000
+1.68754915625E+005, +2.01888986809E+001, +0.00000000000E+000
+1.75004912500E+005, +2.09380037415E+001, +0.00000000000E+000
+1.81254909375E+005, +2.16909998385E+001, +0.00000000000E+000
+1.87504906250E+005, +2.24410976725E+001, +0.00000000000E+000
+1.93754903125E+005, +2.31934210125E+001, +0.00000000000E+000
+2.00004900000E+005, +2.39460622538E+001, +0.00000000000E+000
+2.06254896875E+005, +2.46973973967E+001, +0.00000000000E+000
+2.12504893750E+005, +2.54493335302E+001, +0.00000000000E+000
+2.18754890625E+005, +2.62055029709E+001, +0.00000000000E+000
+2.25004887500E+005, +2.69563848880E+001, +0.00000000000E+000
+2.31254884375E+005, +2.77120700321E+001, +0.00000000000E+000
+2.37504881250E+005, +2.84628701358E+001, +0.00000000000E+000
+2.43754878125E+005, +2.92190709150E+001, +0.00000000000E+000
+2.50004875000E+005, +2.99748193611E+001, +0.00000000000E+000
+2.56254871875E+005, +3.07303300195E+001, +0.00000000000E+000
+2.62504868750E+005, +3.14806435375E+001, +0.00000000000E+000
+2.68754865625E+005, +3.22359028480E+001, +0.00000000000E+000
+2.75004862500E+005, +3.29910332913E+001, +0.00000000000E+000
+2.81254859375E+005, +3.37529038863E+001, +0.00000000000E+000
+2.87504856250E+005, +3.45091130504E+001, +0.00000000000E+000
+2.93754853125E+005, +3.52711348576E+001, +0.00000000000E+000
+3.00004850000E+005, +3.60332951083E+001, +0.00000000000E+000
+3.06254846875E+005, +3.67897091051E+001, +0.00000000000E+000
+3.12504843750E+005, +3.75461133995E+001, +0.00000000000E+000
+3.18754840625E+005, +3.83085039714E+001, +0.00000000000E+000
+3.25004837500E+005, +3.90652235386E+001, +0.00000000000E+000
+3.31254834375E+005, +3.98218348643E+001, +0.00000000000E+000
+3.37504831250E+005, +4.05786702740E+001, +0.00000000000E+000
+3.43754828125E+005, +4.13428289052E+001, +0.00000000000E+000
+3.50004825000E+005, +4.21003396656E+001, +0.00000000000E+000
+3.56254821875E+005, +4.28580597023E+001, +0.00000000000E+000
+3.62504818750E+005, +4.36166059593E+001, +0.00000000000E+000
+3.68754815625E+005, +4.43838503829E+001, +0.00000000000E+000
+3.75004812500E+005, +4.51422985402E+001, +0.00000000000E+000
+3.81254809375E+005, +4.59008898225E+001, +0.00000000000E+000
+3.87504806250E+005, +4.66602539367E+001, +0.00000000000E+000
+3.93754803125E+005, +4.74258911001E+001, +0.00000000000E+000
+4.00004800000E+005, +4.81858668254E+001, +0.00000000000E+000
+4.06254796875E+005, +4.89457396499E+001, +0.00000000000E+000
+4.12504793750E+005, +4.97140572586E+001, +0.00000000000E+000
+4.18754790625E+005, +5.04747610420E+001, +0.00000000000E+000
+4.25004787500E+005, +5.12354313696E+001, +0.00000000000E+000
+4.31254784375E+005, +5.20050470486E+001, +0.00000000000E+000
+4.37504781250E+005, +5.27667787992E+001, +0.00000000000E+000
+4.43754778125E+005, +5.35279365711E+001, +0.00000000000E+000
+4.50004775000E+005, +5.43020708851E+001, +0.00000000000E+000
+4.56254771875E+005, +5.50634235991E+001, +0.00000000000E+000
+4.62504768750E+005, +5.58268814280E+001, +0.00000000000E+000
+4.68754765625E+005, +5.65904626256E+001, +0.00000000000E+000
+4.75004762500E+005, +5.73624674845E+001, +0.00000000000E+000
+4.81254759375E+005, +5.81262215567E+001, +0.00000000000E+000
+4.87504756250E+005, +5.88921763930E+001, +0.00000000000E+000
+4.93754753125E+005, +5.96572046142E+001, +0.00000000000E+000
+5.00004750000E+005, +6.04317788541E+001, +0.00000000000E+000
+5.06254746875E+005, +6.11966963071E+001, +0.00000000000E+000
+5.12504743750E+005, +6.19731483102E+001, +0.00000000000E+000
+5.18754740625E+005, +6.27389509625E+001, +0.00000000000E+000
+5.25004737500E+005, +6.35116582508E+001, +0.00000000000E+000
+5.31254734375E+005, +6.42879916509E+001, +0.00000000000E+000
+5.37504731250E+005, +6.50571566307E+001, +0.00000000000E+000
+5.43754728125E+005, +6.58242733760E+001, +0.00000000000E+000
+5.50004725000E+005, +6.65937855379E+001, +0.00000000000E+000
+5.56254721875E+005, +6.73617527787E+001, +0.00000000000E+000
+5.62504718750E+005, +6.81347026040E+001, +0.00000000000E+000
+5.68754715625E+005, +6.89054912926E+001, +0.00000000000E+000
+5.75004712500E+005, +6.96915688362E+001, +0.00000000000E+000
+5.81254709375E+005, +7.04739303153E+001, +0.00000000000E+000
+5.87504706250E+005, +7.12466300555E+001, +0.00000000000E+000
+5.93754703125E+005, +7.20188612367E+001, +0.00000000000E+000
+6.00004700000E+005, +7.27928518925E+001, +0.00000000000E+000
+6.06254696875E+005, +7.35653159474E+001, +0.00000000000E+000
+6.12504693750E+005, +7.43524286856E+001, +0.00000000000E+000
+6.18754690625E+005, +7.51289059374E+001, +0.00000000000E+000
+6.25004687500E+005, +7.59091542677E+001, +0.00000000000E+000
+6.31254684375E+005, +7.66852971565E+001, +0.00000000000E+000
+6.37504681250E+005, +7.74619523493E+001, +0.00000000000E+000
+6.43754678125E+005, +7.82536970150E+001, +0.00000000000E+000
+6.50004675000E+005, +7.90332725674E+001, +0.00000000000E+000
+6.56254671875E+005, +7.98110427484E+001, +0.00000000000E+000
+6.62504668750E+005, +8.05917885122E+001, +0.00000000000E+000
+6.68754665625E+005, +8.13718229699E+001, +0.00000000000E+000
+6.75004662500E+005, +8.21524350642E+001, +0.00000000000E+000
+6.81254659375E+005, +8.29476550235E+001, +0.00000000000E+000
+6.87504656250E+005, +8.37310019445E+001, +0.00000000000E+000
+6.93754653125E+005, +8.45137277159E+001, +0.00000000000E+000
+7.00004650000E+005, +8.52982358285E+001, +0.00000000000E+000
+7.06254646875E+005, +8.60822844278E+001, +0.00000000000E+000
+7.12504643750E+005, +8.68847493220E+001, +0.00000000000E+000
+7.18754640625E+005, +8.76685538569E+001, +0.00000000000E+000
+7.25004637500E+005, +8.84565860819E+001, +0.00000000000E+000
+7.31254634375E+005, +8.92447516999E+001, +0.00000000000E+000
+7.37504631250E+005, +8.98885316210E+001, +0.00000000000E+000
+7.43754628125E+005, +9.06827611509E+001, +0.00000000000E+000
+7.50004625000E+005, +9.14923655020E+001, +0.00000000000E+000
+7.56254621875E+005, +9.22868431010E+001, +0.00000000000E+000
+7.62504618750E+005, +9.30820940691E+001, +0.00000000000E+000
+7.68754615625E+005, +9.38795476821E+001, +0.00000000000E+000
+7.75004612500E+005, +9.46952735298E+001, +0.00000000000E+000
+7.81254609375E+005, +9.54966829359E+001, +0.00000000000E+000
+7.87504606250E+005, +9.62853690433E+001, +0.00000000000E+000
+7.93754603125E+005, +9.70832576875E+001, +0.00000000000E+000
+8.00004600000E+005, +9.78839636073E+001, +0.00000000000E+000
+8.06254596875E+005, +9.86857830168E+001, +0.00000000000E+000
+8.12504593750E+005, +9.94891961347E+001, +0.00000000000E+000
+8.18754590625E+005, +1.00307515603E+002, +0.00000000000E+000
+8.25004587500E+005, +1.01110709485E+002, +0.00000000000E+000
+8.31254584375E+005, +1.01911867802E+002, +0.00000000000E+000
+8.37504581250E+005, +1.02718513668E+002, +0.00000000000E+000
+8.43754578125E+005, +1.03521083617E+002, +0.00000000000E+000
+8.50004575000E+005, +1.04330990002E+002, +0.00000000000E+000
+8.56254571875E+005, +1.05136898957E+002, +0.00000000000E+000
+8.62504568750E+005, +1.05944994984E+002, +0.00000000000E+000
+8.68754565625E+005, +1.06753059303E+002, +0.00000000000E+000
+8.75004562500E+005, +1.07561682005E+002, +0.00000000000E+000
+8.81254559375E+005, +1.08392972593E+002, +0.00000000000E+000
+8.87504556250E+005, +1.09205815092E+002, +0.00000000000E+000
+8.93754553125E+005, +1.10019392452E+002, +0.00000000000E+000
+9.00004550000E+005, +1.10831560865E+002, +0.00000000000E+000
+9.06254546875E+005, +1.11649283149E+002, +0.00000000000E+000
+9.12504543750E+005, +1.12471199193E+002, +0.00000000000E+000
+9.18754540625E+005, +1.13286920549E+002, +0.00000000000E+000
+9.25004537500E+005, +1.14101785671E+002, +0.00000000000E+000
+9.31254534375E+005, +1.14921113889E+002, +0.00000000000E+000
+9.37504531250E+005, +1.15736481209E+002, +0.00000000000E+000
+9.43754528125E+005, +1.16554477591E+002, +0.00000000000E+000
+9.50004525000E+005, +1.17373319210E+002, +0.00000000000E+000
+9.56254521875E+005, +1.18198674893E+002, +0.00000000000E+000
+9.62504518750E+005, +1.19019649243E+002, +0.00000000000E+000
+9.68754515625E+005, +1.19847580964E+002, +0.00000000000E+000
+9.75004512500E+005, +1.20691083855E+002, +0.00000000000E+000
+9.81254509375E+005, +1.21516500210E+002, +0.00000000000E+000
+9.87504506250E+005, +1.22346768313E+002, +0.00000000000E+000
+9.93754503125E+005, +1.23177809412E+002, +0.00000000000E+000
+1.00000450000E+006, +1.24001124153E+002, +0.00000000000E+000
+1.00625449688E+006, +1.24832266676E+002, +0.00000000000E+000
+1.01250449375E+006, +1.25664809700E+002, +0.00000000000E+000
+1.01875449063E+006, +1.26492114232E+002, +0.00000000000E+000
+1.02500448750E+006, +1.27325857879E+002, +0.00000000000E+000
+1.03125448438E+006, +1.28157220018E+002, +0.00000000000E+000
+1.03750448125E+006, +1.28995198606E+002, +0.00000000000E+000
+1.04375447813E+006, +1.29841690842E+002, +0.00000000000E+000
+1.05000447500E+006, +1.30675361597E+002, +0.00000000000E+000
+1.05625447188E+006, +1.31518434299E+002, +0.00000000000E+000
+1.06250446875E+006, +1.32353193577E+002, +0.00000000000E+000
+1.06875446563E+006, +1.33218231169E+002, +0.00000000000E+000
+1.07500446250E+006, +1.34055586548E+002, +0.00000000000E+000
+1.08125445937E+006, +1.34897853959E+002, +0.00000000000E+000
+1.08750445625E+006, +1.35743676484E+002, +0.00000000000E+000
+1.09375445313E+006, +1.36584147670E+002, +0.00000000000E+000
+1.10000445000E+006, +1.37433466514E+002, +0.00000000000E+000
+1.10625444687E+006, +1.38276431281E+002, +0.00000000000E+000
+1.11250444375E+006, +1.39127085624E+002, +0.00000000000E+000
+1.11875444063E+006, +1.39997186056E+002, +0.00000000000E+000
+1.12500443750E+006, +1.40848059635E+002, +0.00000000000E+000
+1.13125443438E+006, +1.41699058888E+002, +0.00000000000E+000
+1.13750443125E+006, +1.42553588248E+002, +0.00000000000E+000
+1.14375442812E+006, +1.43378188206E+002, +0.00000000000E+000
+1.15000442500E+006, +1.44230769398E+002, +0.00000000000E+000
+1.15625442188E+006, +1.45086450219E+002, +0.00000000000E+000
+1.16250441875E+006, +1.45964799368E+002, +0.00000000000E+000
+1.16875441562E+006, +1.46820973076E+002, +0.00000000000E+000
+1.17500441250E+006, +1.47684277176E+002, +0.00000000000E+000
+1.18125440938E+006, +1.48545626632E+002, +0.00000000000E+000
+1.18750440625E+006, +1.49408257059E+002, +0.00000000000E+000
+1.19375440313E+006, +1.50271744934E+002, +0.00000000000E+000
+1.20000440000E+006, +1.51156812464E+002, +0.00000000000E+000
+1.20625439687E+006, +1.52027268585E+002, +0.00000000000E+000
+1.21250439375E+006, +1.52893207280E+002, +0.00000000000E+000
+1.21875439063E+006, +1.53764273370E+002, +0.00000000000E+000
+1.22500438750E+006, +1.54628597575E+002, +0.00000000000E+000
+1.23125438437E+006, +1.55499884922E+002, +0.00000000000E+000
+1.23750438125E+006, +1.56398074129E+002, +0.00000000000E+000
+1.24375437813E+006, +1.57272786762E+002, +0.00000000000E+000
+1.25000437500E+006, +1.58158436209E+002, +0.00000000000E+000
+1.25625437188E+006, +1.59032722823E+002, +0.00000000000E+000
+1.26250436875E+006, +1.59912935149E+002, +0.00000000000E+000
+1.26875436562E+006, +1.60817610242E+002, +0.00000000000E+000
+1.27500436250E+006, +1.61696867952E+002, +0.00000000000E+000
+1.28125435938E+006, +1.62576575703E+002, +0.00000000000E+000
+1.28750435625E+006, +1.63463557332E+002, +0.00000000000E+000
+1.29375435312E+006, +1.64350274631E+002, +0.00000000000E+000
+1.30000435000E+006, +1.65238089454E+002, +0.00000000000E+000
+1.30625434688E+006, +1.66154594811E+002, +0.00000000000E+000
+1.31250434375E+006, +1.67045100012E+002, +0.00000000000E+000
+1.31875434063E+006, +1.67940341926E+002, +0.00000000000E+000
+1.32500433750E+006, +1.68830095414E+002, +0.00000000000E+000
+1.33125433437E+006, +1.69728306603E+002, +0.00000000000E+000
+1.33750433125E+006, +1.70620153566E+002, +0.00000000000E+000
+1.34375432813E+006, +1.71544909603E+002, +0.00000000000E+000
+1.35000432500E+006, +1.72448901566E+002, +0.00000000000E+000
+1.35625432187E+006, +1.73346299272E+002, +0.00000000000E+000
+1.36250431875E+006, +1.74255076907E+002, +0.00000000000E+000
+1.36875431563E+006, +1.75153783602E+002, +0.00000000000E+000
+1.37500431250E+006, +1.76060892342E+002, +0.00000000000E+000
+1.38125430938E+006, +1.76996766037E+002, +0.00000000000E+000
+1.38750430625E+006, +1.77908768714E+002, +0.00000000000E+000
+1.39375430312E+006, +1.78822338527E+002, +0.00000000000E+000
+1.40000430000E+006, +1.79731854243E+002, +0.00000000000E+000
+1.40625429688E+006, +1.80646364837E+002, +0.00000000000E+000
+1.41250429375E+006, +1.81583992797E+002, +0.00000000000E+000
+1.41875429062E+006, +1.82508444164E+002, +0.00000000000E+000
+1.42500428750E+006, +1.83428501989E+002, +0.00000000000E+000
+1.43125428438E+006, +1.84345440488E+002, +0.00000000000E+000
+1.43750428125E+006, +1.85273004144E+002, +0.00000000000E+000
+1.44375427813E+006, +1.86197644745E+002, +0.00000000000E+000
+1.45000427500E+006, +1.87153166113E+002, +0.00000000000E+000
+1.45625427187E+006, +1.88078086989E+002, +0.00000000000E+000
+1.46250426875E+006, +1.89012542602E+002, +0.00000000000E+000
+1.46875426563E+006, +1.89937192250E+002, +0.00000000000E+000
+1.47500426250E+006, +1.90872641246E+002, +0.00000000000E+000
+1.48125425937E+006, +1.91808441894E+002, +0.00000000000E+000
+1.48750425625E+006, +1.92751419842E+002, +0.00000000000E+000
+1.49375425313E+006, +1.93720913723E+002, +0.00000000000E+000
+1.50000425000E+006, +1.94666907522E+002, +0.00000000000E+000
+1.50625424688E+006, +1.95613954517E+002, +0.00000000000E+000
+1.51250424375E+006, +1.96561180500E+002, +0.00000000000E+000
+1.51875424062E+006, +1.97507691547E+002, +0.00000000000E+000
+1.52500423750E+006, +1.98464569295E+002, +0.00000000000E+000
+1.53125423438E+006, +1.99415114235E+002, +0.00000000000E+000
+1.53750423125E+006, +2.00365555600E+002, +0.00000000000E+000
+1.54375422812E+006, +2.01365708400E+002, +0.00000000000E+000
+1.55000422500E+006, +2.02322399115E+002, +0.00000000000E+000
+1.55625422188E+006, +2.03281664694E+002, +0.00000000000E+000
+1.56250421875E+006, +2.04241685958E+002, +0.00000000000E+000
+1.56875421563E+006, +2.05197378033E+002, +0.00000000000E+000
+1.57500421250E+006, +2.06163923837E+002, +0.00000000000E+000
+1.58125420937E+006, +2.07129508478E+002, +0.00000000000E+000
+1.58750420625E+006, +2.08134384428E+002, +0.00000000000E+000
+1.59375420313E+006, +2.09107764229E+002, +0.00000000000E+000
+1.60000420000E+006, +2.10080502912E+002, +0.00000000000E+000
+1.60625419687E+006, +2.11060643276E+002, +0.00000000000E+000
+1.61250419375E+006, +2.12039435964E+002, +0.00000000000E+000
+1.61875419063E+006, +2.13028741412E+002, +0.00000000000E+000
+1.62500418750E+006, +2.14010354970E+002, +0.00000000000E+000
+1.63125418438E+006, +2.14994247597E+002, +0.00000000000E+000
+1.63750418125E+006, +2.16023554724E+002, +0.00000000000E+000
+1.64375417812E+006, +2.17021014755E+002, +0.00000000000E+000
+1.65000417500E+006, +2.18007765006E+002, +0.00000000000E+000
+1.65625417188E+006, +2.18995932698E+002, +0.00000000000E+000
+1.66250416875E+006, +2.20005023012E+002, +0.00000000000E+000
+1.66875416562E+006, +2.21010981500E+002, +0.00000000000E+000
+1.67500416250E+006, +2.22016070536E+002, +0.00000000000E+000
+1.68125415938E+006, +2.23019402207E+002, +0.00000000000E+000
+1.68750415625E+006, +2.24060547651E+002, +0.00000000000E+000
+1.69375415313E+006, +2.25070705918E+002, +0.00000000000E+000
+1.70000415000E+006, +2.26080393388E+002, +0.00000000000E+000
+1.70625414687E+006, +2.27102179213E+002, +0.00000000000E+000
+1.71250414375E+006, +2.28175626048E+002, +0.00000000000E+000
+1.71875414063E+006, +2.29189723257E+002, +0.00000000000E+000
+1.72500413750E+006, +2.30218771027E+002, +0.00000000000E+000
+1.73125413437E+006, +2.31241173230E+002, +0.00000000000E+000
+1.73750413125E+006, +2.32297834284E+002, +0.00000000000E+000
+1.74375412813E+006, +2.33334292662E+002, +0.00000000000E+000
+1.75000412500E+006, +2.34367242504E+002, +0.00000000000E+000
+1.75625412188E+006, +2.35397804032E+002, +0.00000000000E+000
+1.76250411875E+006, +2.36441404910E+002, +0.00000000000E+000
+1.76875411562E+006, +2.37471672165E+002, +0.00000000000E+000
+1.77500411250E+006, +2.38552612049E+002, +0.00000000000E+000
+1.78125410938E+006, +2.39597491022E+002, +0.00000000000E+000
+1.78750410625E+006, +2.40638526929E+002, +0.00000000000E+000
+1.79375410312E+006, +2.41681641660E+002, +0.00000000000E+000
+1.80000410000E+006, +2.42737549049E+002, +0.00000000000E+000
+1.80625409688E+006, +2.43798379756E+002, +0.00000000000E+000
+1.81250409375E+006, +2.44845604986E+002, +0.00000000000E+000
+1.81875409063E+006, +2.45952723198E+002, +0.00000000000E+000
+1.82500408750E+006, +2.47022168525E+002, +0.00000000000E+000
+1.83125408437E+006, +2.48083137900E+002, +0.00000000000E+000
+1.83750408125E+006, +2.49143428421E+002, +0.00000000000E+000
+1.84375407813E+006, +2.50217363231E+002, +0.00000000000E+000
+1.85000407500E+006, +2.51292837491E+002, +0.00000000000E+000
+1.85625407187E+006, +2.52409944142E+002, +0.00000000000E+000
+1.86250406875E+006, +2.53479252941E+002, +0.00000000000E+000
+1.86875406563E+006, +2.54568739574E+002, +0.00000000000E+000
+1.87500406250E+006, +2.55656542102E+002, +0.00000000000E+000
+1.88125405938E+006, +2.56735857091E+002, +0.00000000000E+000
+1.88750405625E+006, +2.57829193828E+002, +0.00000000000E+000
+1.89375405312E+006, +2.58931437449E+002, +0.00000000000E+000
+1.90000405000E+006, +2.60073765255E+002, +0.00000000000E+000
+1.90625404688E+006, +2.61167293096E+002, +0.00000000000E+000
+1.91250404375E+006, +2.62278650450E+002, +0.00000000000E+000
+1.91875404062E+006, +2.63360494335E+002, +0.00000000000E+000
+1.92500403750E+006, +2.64469038675E+002, +0.00000000000E+000
+1.93125403438E+006, +2.65577496961E+002, +0.00000000000E+000
+1.93750403125E+006, +2.66696182781E+002, +0.00000000000E+000
+1.94375402813E+006, +2.67809320715E+002, +0.00000000000E+000
+1.95000402500E+006, +2.68980418945E+002, +0.00000000000E+000
+1.95625402187E+006, +2.70101483486E+002, +0.00000000000E+000
+1.96250401875E+006, +2.71216079467E+002, +0.00000000000E+000
+1.96875401563E+006, +2.72349439065E+002, +0.00000000000E+000
+1.97500401250E+006, +2.73534914444E+002, +0.00000000000E+000
+1.98125400937E+006, +2.74658034957E+002, +0.00000000000E+000
+1.98750400625E+006, +2.75798245850E+002, +0.00000000000E+000
+1.99375400313E+006, +2.76991334875E+002, +0.00000000000E+000
+2.00000400000E+006, +2.78128453054E+002, +0.00000000000E+000
